timestamps,,,,,Marker
1488767248.169,-482.563,-260.849,-12296.730,12578.193,0
1488767248.169,-253.496,-324.180,-11994.616,13279.812,0
1488767248.171,-290.779,-300.637,975.069,946.986,0
1488767248.184,-474.573,-213.862,315.597,428.060,0
1488767248.184,-286.809,-293.930,960.934,884.999,0
1488767248.186,-256.211,-321.740,1259.361,1568.512,0
1488767248.186,-477.811,-264.061,528.498,807.166,0
1488767248.200,-367.251,-269.566,1381.639,877.923,0
1488767248.200,-251.484,-335.003,1774.794,1718.740,0
1488767248.214,-366.905,-258.266,1128.423,889.840,0
1488767248.214,-468.757,-259.923,481.480,837.167,0
1488767248.216,-258.405,-328.434,748.021,1516.013,0
1488767248.216,-285.642,-293.083,-11.683,941.662,0
1488767248.230,-475.251,-222.580,-654.875,424.550,0
1488767248.230,-308.839,-311.066,-28.878,873.886,0
1488767248.244,-259.321,-323.393,268.371,1564.254,0
1488767248.244,-467.753,-256.125,-447.935,807.209,0
1488767248.246,-383.772,-282.832,396.775,862.913,0
1488767248.246,-230.561,-318.825,822.146,1746.503,0
1488767248.260,-378.747,-277.961,132.688,870.166,0
1488767248.260,-426.820,-222.717,-456.339,-105.046,0
1488767248.274,-265.430,-326.671,-252.393,513.845,0
1488767248.274,-333.276,-324.227,-1073.518,-99.943,0
1488767248.276,-508.752,-244.610,-1690.893,-601.090,0
1488767248.276,-306.892,-314.666,-1012.623,-112.470,0
1488767248.290,-266.541,-334.506,-735.704,557.389,0
1488767248.290,-495.755,-276.678,-1469.038,-206.298,0
1488767248.304,-402.948,-303.298,-593.227,-138.612,0
1488767248.304,-264.039,-343.828,-204.395,726.691,0
1488767248.306,-378.734,-273.830,-868.657,-120.745,0
1488767248.306,-455.989,-243.165,-1457.452,-129.780,0
1488767248.320,-230.318,-304.862,-1189.943,555.585,0
1488767248.320,-287.437,-291.389,-1984.095,-48.084,0
1488767248.334,-457.061,-205.926,-2589.679,-549.668,0
1488767248.334,-291.669,-299.420,-1950.928,-84.774,0
1488767248.336,-252.331,-312.278,-1698.120,571.760,0
1488767248.336,-464.941,-248.855,-2428.190,-197.523,0
1488767248.350,-382.287,-279.743,-1537.269,-112.790,0
1488767248.350,-240.502,-323.881,-1168.651,737.841,0
1488767248.364,-383.530,-278.802,-1870.309,-138.159,0
1488767248.364,-422.093,-222.208,-2404.789,-1077.072,0
1488767248.366,-286.344,-344.836,-2220.399,-469.535,0
1488767248.366,-343.538,-333.853,-3051.734,-1103.414,0
1488767248.380,-508.164,-245.048,-3629.458,-1575.558,0
1488767248.380,-300.389,-304.063,-2940.975,-1063.788,0
1488767248.394,-243.496,-309.969,-2687.546,-395.709,0
1488767248.394,-451.419,-240.494,-3417.575,-1160.298,0
1488767248.396,-379.708,-278.495,-2523.699,-1066.881,0
1488767248.396,-256.181,-339.774,-2168.130,-246.342,0
1488767248.410,-359.455,-252.385,-2867.181,-1103.594,0
1488767248.410,-468.013,-251.224,-3429.610,-1110.191,0
1488767248.424,-262.010,-324.504,-3190.194,-445.650,0
1488767248.424,-310.015,-302.769,-4020.624,-1066.642,0
1488767248.426,-482.765,-228.396,-4601.542,-1550.443,0
1488767248.426,-317.463,-316.971,-3947.473,-1074.890,0
1488767248.440,-258.087,-316.869,-3683.446,-403.502,0
1488767248.440,-458.220,-245.943,-4413.329,-1177.900,0
1488767248.454,-354.802,-262.922,-3460.771,-1050.940,0
1488767248.454,-245.229,-330.069,-3147.548,-247.705,0
1488767248.456,-411.482,-297.373,-3884.959,-1152.858,0
1488767248.456,-445.085,-241.900,-4359.313,-2069.631,0
1488767248.470,-254.536,-334.609,-4123.694,-1409.581,0
1488767248.470,-331.656,-330.385,-5005.338,-2064.509,0
1488767248.484,-517.402,-258.954,-5598.299,-2565.162,0
1488767248.484,-312.622,-315.389,-4884.877,-2036.211,0
1488767248.486,-271.324,-333.895,-4661.697,-1390.687,0
1488767248.486,-477.479,-266.305,-5413.518,-2185.124,0
1488767248.500,-411.404,-313.858,-4462.482,-2069.769,0
1488767248.500,-253.964,-345.580,-4108.491,-1215.667,0
1488767248.514,-375.873,-288.776,-4845.244,-2109.735,0
1488767248.514,-493.721,-283.980,-5366.829,-3072.550,0
1488767248.516,-255.065,-329.536,-5106.941,-2384.313,0
1488767248.516,-291.794,-295.026,-5967.287,-3013.593,0
1488767248.530,-482.103,-230.967,-6558.827,-3518.707,0
1488767248.530,-288.169,-300.103,-5855.642,-3003.773,0
1488767248.544,-231.253,-300.581,-5620.501,-2350.168,0
1488767248.544,-447.681,-236.822,-6378.604,-3139.055,0
1488767248.546,-388.761,-298.010,-5420.986,-3026.538,0
1488767248.546,-238.523,-326.336,-5076.061,-2180.399,0
1488767248.560,-398.759,-294.425,-5867.443,-3120.251,0
1488767248.560,-454.263,-254.747,-6305.632,-4015.938,0
1488767248.574,-254.405,-326.617,-6084.867,-3365.792,0
1488767248.574,-308.566,-310.354,-6966.968,-4009.863,0
1488767248.576,-467.512,-220.452,-7515.674,-4484.347,0
1488767248.576,-269.153,-296.458,-6791.785,-3951.986,0
1488767248.590,-261.260,-332.859,-6624.011,-3348.472,0
1488767248.590,-477.262,-257.909,-7402.176,-4148.478,0
1488767248.604,-388.411,-290.173,-7366.488,-3994.815,0
1488767248.604,-228.917,-327.875,-7024.771,-3147.071,0
1488767248.606,-361.183,-265.548,-7803.871,-4068.560,0
1488767248.606,-435.951,-243.357,-8251.944,-4981.032,0
1488767248.620,-249.059,-329.001,-8032.000,-4326.148,0
1488767248.620,-315.550,-311.814,-8935.851,-4990.560,0
1488767248.634,-487.036,-232.010,-9500.646,-5491.411,0
1488767248.634,-290.409,-311.592,-8761.933,-4939.037,0
1488767248.636,-254.889,-326.540,-8574.801,-4320.025,0
1488767248.636,-449.207,-240.547,-9340.231,-5104.069,0
1488767248.650,-363.617,-276.670,-9292.703,-4941.026,0
1488767248.650,-238.830,-330.042,-8989.762,-4133.883,0
1488767248.664,-395.195,-284.941,-9786.812,-5060.107,0
1488767248.664,-484.216,-270.862,-10234.752,-6002.606,0
1488767248.666,-231.139,-314.570,-9980.653,-5309.036,0
1488767248.666,-309.037,-316.167,-10903.956,-5979.907,0
1488767248.681,-488.564,-242.355,-11459.960,-6473.596,0
1488767248.681,-283.477,-313.106,-10711.069,-5913.324,0
1488767248.694,-272.551,-355.625,-10560.873,-5317.088,0
1488767248.694,-480.242,-259.538,-11342.056,-6124.648,0
1488767248.696,-391.377,-303.953,-11277.466,-5956.250,0
1488767248.696,-244.704,-340.701,-10966.420,-5129.327,0
1488767248.710,-384.763,-289.264,-11778.506,-6070.648,0
1488767248.710,-457.683,-261.782,-12186.013,-6963.901,0
1488767248.724,-258.678,-341.958,-11963.016,-6296.761,0
1488767248.724,-317.192,-315.720,-12899.060,-6987.004,0
1488767248.726,-496.715,-237.285,-13438.413,-7465.700,0
1488767248.726,-293.203,-312.480,-12681.019,-6906.677,0
1488767248.740,-256.329,-320.102,-12520.852,-6293.462,0
1488767248.740,-488.816,-265.598,-13323.864,-7130.149,0
1488767248.754,-355.726,-269.731,-13194.971,-6898.984,0
1488767248.754,-210.332,-302.448,-12899.404,-6078.459,0
1488767248.756,-398.352,-286.256,-13770.995,-6091.975,0
1488767248.756,-457.958,-257.640,-14132.812,-6969.030,0
1488767248.770,-235.948,-320.695,-13900.518,-6280.168,0
1488767248.770,-311.292,-304.839,-14861.376,-6981.845,0
1488767248.784,-504.675,-242.777,-15393.986,-7470.321,0
1488767248.784,-293.590,-307.388,-14629.646,-6893.611,0
1488767248.787,-240.750,-312.553,-14462.041,-6275.849,0
1488767248.788,-457.788,-237.360,-15245.856,-7095.889,0
1488767248.800,-370.538,-284.322,-15155.697,-6905.478,0
1488767248.800,-231.270,-318.011,-14870.568,-6085.937,0
1488767248.814,-375.114,-268.287,-15699.708,-7047.970,0
1488767248.814,-435.420,-229.450,-16057.968,-7913.604,0
1488767248.816,-270.406,-343.861,-15893.011,-7289.173,0
1488767248.816,-316.773,-319.703,-16832.467,-7973.414,0
1488767248.830,-472.873,-224.641,-17309.352,-8414.235,0
1488767248.830,-286.508,-307.001,-16590.291,-7868.553,0
1488767248.844,-288.842,-349.378,-16486.559,-7307.472,0
1488767248.844,-461.412,-238.050,-17213.379,-8073.853,0
1488767248.846,-353.529,-270.255,-17090.652,-7852.370,0
1488767248.846,-221.082,-314.479,-16845.861,-7076.777,0
1488767248.860,-406.858,-288.081,-17711.021,-7092.952,0
1488767248.860,-477.763,-273.669,-18031.990,-7938.756,0
1488767248.874,-252.600,-330.602,-17831.770,-7267.095,0
1488767248.874,-289.764,-285.661,-18777.152,-7953.520,0
1488767248.876,-491.154,-233.858,-19267.617,-8419.563,0
1488767248.876,-305.645,-331.761,-18545.883,-7876.887,0
1488767248.890,-249.481,-312.270,-18409.639,-7269.873,0
1488767248.890,-477.544,-254.738,-19186.672,-8087.131,0
1488767248.904,-365.689,-285.693,-19032.137,-7838.347,0
1488767248.904,-220.583,-319.726,-18796.363,-7064.493,0
1488767248.919,-377.599,-270.649,-19659.129,-7077.437,0
1488767248.919,-441.293,-247.112,-19947.322,-7902.668,0
1488767248.934,-265.782,-337.662,-19791.785,-7262.676,0
1488767248.934,-316.910,-308.186,-19804.168,-7986.530,0
1488767248.934,-497.057,-249.008,-20259.998,-8427.501,0
1488767248.934,-294.970,-320.549,-19513.625,-7861.836,0
1488767248.937,-252.449,-320.814,-19409.697,-7293.328,0
1488767248.937,-461.345,-245.536,-20181.332,-8110.859,0
1488767248.950,-378.504,-291.379,-20020.152,-7861.323,0
1488767248.950,-249.371,-332.152,-19805.199,-7092.099,0
1488767248.964,-386.221,-273.878,-20674.094,-7104.149,0
1488767248.964,-469.894,-264.523,-20952.156,-7922.383,0
1488767248.966,-272.250,-349.789,-20782.188,-7272.865,0
1488767248.966,-304.858,-307.179,-20785.990,-7981.542,0
1488767248.980,-472.028,-218.657,-21225.594,-8409.364,0
1488767248.980,-325.942,-341.453,-20485.477,-7851.736,0
1488767248.994,-279.872,-345.238,-20409.199,-7297.197,0
1488767248.994,-435.309,-212.335,-21176.211,-8111.179,0
1488767248.996,-305.511,-219.541,-20937.256,-7802.508,0
1488767248.996,-227.390,-299.100,-20792.914,-7100.908,0
1488767249.010,-368.025,-239.425,-21686.268,-7134.130,0
1488767249.010,-395.962,-192.143,-21886.613,-7886.710,0
1488767249.024,-238.630,-293.741,-21772.350,-7279.629,0
1488767249.024,-265.823,-251.224,-21773.857,-7978.624,0
1488767249.026,-439.500,-183.590,-22195.049,-8408.667,0
1488767249.026,-283.914,-295.667,-21479.668,-7871.515,0
1488767249.040,-254.502,-308.214,-21411.465,-7315.801,0
1488767249.040,-468.623,-243.049,-22177.062,-8143.983,0
1488767249.054,-359.947,-267.807,-21952.301,-7841.375,0
1488767249.054,-258.231,-331.348,-21788.391,-7107.365,0
1488767249.056,-412.883,-290.207,-22688.828,-7144.805,0
1488767249.056,-460.817,-255.835,-22872.924,-7906.462,0
1488767249.070,-254.496,-324.085,-22718.781,-7247.198,0
1488767249.070,-323.580,-309.265,-22793.678,-8012.659,0
1488767249.084,-486.894,-219.674,-23177.791,-8416.990,0
1488767249.084,-307.975,-314.567,-22434.586,-7849.107,0
1488767249.086,-243.692,-309.546,-22364.859,-7284.182,0
1488767249.086,-454.372,-229.073,-23124.637,-8100.539,0
1488767249.100,-371.479,-281.117,-22908.078,-7820.602,0
1488767249.100,-265.866,-344.041,-22774.230,-7108.265,0
1488767249.114,-387.947,-270.849,-23646.004,-7118.909,0
1488767249.114,-415.106,-224.615,-23784.430,-7843.035,0
1488767249.116,-268.474,-344.538,-23725.625,-7268.360,0
1488767249.116,-300.484,-297.152,-23769.322,-8004.560,0
1488767249.130,-494.256,-240.790,-24152.176,-8424.577,0
1488767249.130,-275.683,-308.504,-23377.199,-7806.998,0
1488767249.144,-275.919,-335.847,-23394.787,-7319.863,0
1488767249.144,-456.732,-235.088,-24103.951,-8106.012,0
1488767249.146,-400.119,-307.710,-23892.668,-7833.902,0
1488767249.146,-243.258,-329.768,-23736.191,-7089.223,0
1488767249.160,-419.082,-293.735,-24657.381,-7149.342,0
1488767249.160,-444.461,-254.562,-24765.041,-7850.756,0
1488767249.174,-233.746,-310.877,-24674.418,-7242.796,0
1488767249.174,-318.533,-297.793,-24785.152,-8037.162,0
1488767249.176,-495.800,-239.916,-2568.892,-1554.143,0
1488767249.189,-320.259,-324.767,-1868.164,-1005.034,0
1488767249.189,-309.729,-360.614,-1871.923,-503.594,0
1488767249.191,-494.757,-260.809,-2564.713,-1289.205,0
1488767249.191,-351.311,-270.398,-2267.026,-924.275,0
1488767249.205,-214.029,-314.174,-2161.148,-216.527,0
1488767249.205,-429.982,-301.243,-3120.066,-308.330,0
1488767249.219,-490.677,-287.269,-3219.943,-1018.586,0
1488767249.219,-266.520,-336.210,-3132.712,-394.129,0
1488767249.221,-307.622,-299.407,-3199.177,-1149.282,0
1488767249.221,-486.860,-230.875,-3517.585,-1522.730,0
1488767249.235,-274.709,-295.101,-2771.563,-930.149,0
1488767249.235,-243.075,-297.977,-2784.365,-426.248,0
1488767249.249,-499.920,-268.235,-3569.344,-1288.983,0
1488767249.249,-355.457,-276.459,-3235.002,-912.511,0
1488767249.251,-245.943,-326.346,-3161.747,-223.130,0
1488767249.251,-406.243,-285.369,-4080.270,-287.681,0
1488767249.265,-438.619,-236.076,-4121.981,-954.748,0
1488767249.265,-258.874,-329.940,-4076.207,-368.165,0
1488767249.279,-291.557,-281.880,-4186.047,-1144.142,0
1488767249.279,-476.858,-216.018,-4567.050,-1566.986,0
1488767249.281,-316.156,-333.133,-3687.206,-915.786,0
1488767249.281,-266.144,-329.021,-3742.119,-417.984,0
1488767249.295,-470.324,-233.626,-4639.366,-1327.300,0
1488767249.295,-377.651,-291.714,-4183.007,-918.994,0
1488767249.309,-251.839,-327.868,-4060.789,-173.313,0
1488767249.309,-413.410,-277.097,-4192.699,-344.334,0
1488767249.311,-434.728,-236.663,-4164.289,-1004.831,0
1488767249.311,-239.208,-316.835,-3984.629,-312.270,0
1488767249.325,-323.445,-296.668,-4245.023,-1176.816,0
1488767249.325,-508.611,-241.742,-4633.846,-1630.275,0
1488767249.339,-277.645,-303.671,-3673.135,-902.974,0
1488767249.339,-263.566,-325.313,-3772.295,-436.663,0
1488767249.341,-485.540,-244.070,-4695.556,-1378.228,0
1488767249.341,-363.883,-280.216,-4158.471,-908.293,0
1488767249.355,-239.290,-325.109,-4072.609,-185.454,0
1488767249.355,-401.460,-265.408,-4227.313,-365.919,0
1488767249.369,-448.526,-249.964,-4169.553,-1024.609,0
1488767249.369,-244.861,-330.192,-4000.238,-327.699,0
1488767249.371,-340.550,-324.146,-4301.920,-1222.676,0
1488767249.371,-524.033,-258.876,-4650.838,-1651.231,0
1488767249.385,-300.968,-329.339,-3673.167,-910.987,0
1488767249.385,-265.658,-322.710,-3793.618,-450.114,0
1488767249.399,-490.845,-250.166,-4704.149,-1393.694,0
1488767249.399,-346.838,-278.671,-4123.980,-884.576,0
1488767249.401,-240.477,-336.303,-4070.655,-183.990,0
1488767249.401,-405.160,-277.809,-4234.541,-368.606,0
1488767249.415,-468.230,-275.115,-4164.352,-1028.198,0
1488767249.415,-249.945,-339.875,-3986.170,-318.441,0
1488767249.429,-314.799,-300.929,-4281.409,-1198.006,0
1488767249.429,-501.326,-238.759,-4616.085,-1626.524,0
1488767249.431,-259.921,-301.915,-4582.667,-857.161,0
1488767249.431,-250.053,-317.772,-4751.875,-426.184,0
1488767249.445,-466.115,-227.320,-5680.496,-1378.490,0
1488767249.445,-387.340,-313.103,-5108.398,-902.982,0
1488767249.459,-253.464,-343.388,-5076.562,-199.516,0
1488767249.459,-413.827,-275.907,-5249.484,-392.394,0
1488767249.461,-444.495,-251.645,-5092.750,-989.465,0
1488767249.461,-235.832,-324.614,-4933.979,-287.750,0
1488767249.475,-330.620,-311.496,-5305.280,-1224.647,0
1488767249.475,-497.457,-228.255,-5593.813,-1627.292,0
1488767249.489,-293.556,-321.465,-5565.680,-860.401,0
1488767249.489,-269.226,-331.761,-5761.617,-442.357,0
1488767249.491,-485.344,-252.832,-6699.692,-1409.540,0
1488767249.491,-357.796,-292.314,-6032.223,-856.093,0
1488767249.505,-218.491,-318.538,-6005.163,-141.344,0
1488767249.505,-401.828,-267.622,-6255.852,-393.249,0
1488767249.519,-437.293,-246.213,-6068.040,-988.091,0
1488767249.519,-242.873,-332.859,-5912.264,-283.223,0
1488767249.521,-309.574,-293.487,-6286.668,-1214.910,0
1488767249.521,-488.816,-226.212,-6566.582,-1628.801,0
1488767249.535,-297.212,-329.706,-6535.161,-859.191,0
1488767249.535,-250.095,-318.664,-6734.740,-425.567,0
1488767249.549,-480.888,-241.321,-7696.478,-434.408,0
1488767249.549,-338.220,-264.721,-6965.236,155.836,0
1488767249.551,-264.130,-352.246,-6040.989,800.069,0
1488767249.551,-427.811,-288.053,-6299.423,548.381,0
1488767249.565,-467.817,-270.907,-6033.534,-2.233,0
1488767249.565,-246.256,-333.932,-5882.458,715.897,0
1488767249.579,-322.153,-306.535,-6319.600,-251.634,0
1488767249.579,-515.106,-249.874,-6581.491,-668.703,0
1488767249.581,-309.552,-340.847,-6512.600,133.844,0
1488767249.581,-248.638,-304.374,-6744.604,548.252,0
1488767249.595,-488.571,-238.796,-7723.639,525.035,0
1488767249.595,-377.333,-310.748,-6958.944,1130.100,0
1488767249.609,-251.615,-336.486,-6024.864,1798.295,0
1488767249.609,-410.703,-268.325,-6325.175,1526.318,0
1488767249.611,-453.263,-262.612,-6017.278,990.406,0
1488767249.611,-262.784,-348.809,-5893.485,1687.024,0
1488767249.625,-336.411,-316.704,-6358.691,1678.403,0
1488767249.625,-505.335,-244.055,-6573.062,1299.537,0
1488767249.639,-288.524,-327.907,-6466.433,2132.178,0
1488767249.639,-259.138,-322.837,-6758.511,2505.239,0
1488767249.641,-470.865,-233.512,-7724.187,2482.609,0
1488767249.641,-336.234,-279.344,-6898.071,3136.933,0
1488767249.655,-248.071,-338.098,-6024.047,3762.134,0
1488767249.655,-433.301,-289.186,-6366.671,3450.390,0
1488767249.669,-438.002,-246.788,-5997.040,2961.724,0
1488767249.669,-238.342,-330.936,-5881.486,3664.823,0
1488767249.671,-315.444,-298.117,-6362.396,3653.147,0
1488767249.671,-501.975,-239.873,-6558.438,3264.321,0
1488767249.685,-289.551,-332.084,-6446.561,4101.854,0
1488767249.685,-266.997,-322.142,-6777.179,4454.929,0
1488767249.699,-484.323,-235.718,-6778.110,4422.074,0
1488767249.700,-347.485,-289.988,-5882.601,5110.786,0
1488767249.701,-241.951,-335.394,-5037.235,5736.881,0
1488767249.701,-420.628,-275.988,-5405.043,5408.724,0
1488767249.715,-446.991,-260.529,-4987.029,4934.317,0
1488767249.715,-256.408,-344.052,-4919.081,5613.462,0
1488767249.729,-295.074,-272.188,-5388.936,4640.621,0
1488767249.729,-482.391,-223.134,-5523.123,4284.616,0
1488767249.731,-277.360,-323.857,-5432.728,5111.099,0
1488767249.731,-240.995,-307.119,-5796.811,5443.028,0
1488767249.745,-495.862,-243.531,-6775.718,5395.542,0
1488767249.745,-354.574,-290.377,-5890.441,6076.389,0
1488767249.759,-238.220,-329.956,-5075.927,6692.382,0
1488767249.759,-400.655,-257.606,-5421.621,6379.199,0
1488767249.761,-431.476,-244.593,-4945.473,5937.648,0
1488767249.761,-241.880,-332.301,-4888.382,6616.363,0
1488767249.775,-315.073,-292.941,-5447.022,6559.741,0
1488767249.775,-486.585,-226.384,-5541.735,6223.969,0
1488767249.789,-272.728,-320.685,-5387.211,7101.901,0
1488767249.789,-277.512,-332.006,-5834.986,7369.119,0
1488767249.791,-473.453,-231.015,-5863.858,7321.114,0
1488767249.791,-333.118,-278.434,-5791.777,8105.485,0
1488767249.805,-235.015,-330.710,-4999.414,8708.867,0
1488767249.805,-411.774,-265.417,-5497.318,8309.666,0
1488767249.819,-440.396,-259.312,-4928.735,7887.144,0
1488767249.819,-229.542,-328.765,-4793.001,8637.616,0
1488767249.821,-314.247,-292.326,-5469.935,8510.613,0
1488767249.821,-490.710,-229.834,-5597.693,8138.643,0
1488767249.835,-257.230,-307.167,-5328.228,9096.997,0
1488767249.835,-218.835,-285.347,-5797.750,9385.211,0
1488767249.849,-444.582,-205.756,-6776.440,9329.225,0
1488767249.849,-343.117,-281.833,-6772.339,10072.244,0
1488767249.851,-219.175,-310.081,-6061.551,10633.347,0
1488767249.851,-382.294,-232.962,-6475.606,10267.465,0
1488767249.865,-416.301,-239.010,-5840.629,9915.401,0
1488767249.865,-242.203,-325.932,-4906.543,10536.821,0
1488767249.879,-318.441,-288.472,-5549.682,10413.712,0
1488767249.879,-534.578,-265.989,-5568.991,10096.863,0
1488767249.894,-332.827,-370.523,-5403.484,10990.548,0
1488767249.894,-319.354,-364.036,-5916.845,11241.685,0
1488767249.896,-552.817,-294.166,-5921.748,11176.288,0
1488767249.896,-429.731,-370.680,-5792.271,12000.444,0
1488767249.909,-310.326,-396.489,-5102.381,12561.581,0
1488767249.909,-499.056,-338.986,-5600.737,12145.543,0
1488767249.911,-538.007,-349.125,-4914.498,11798.376,0
1488767249.911,-334.543,-419.331,-4884.251,12502.967,0
1488767249.925,-399.722,-364.558,-5592.240,12348.857,0
1488767249.925,-559.779,-294.736,-5594.047,12051.550,0
1488767249.939,-344.606,-389.202,-5377.587,12985.491,0
1488767249.939,-326.925,-374.042,-5929.147,13209.868,0
1488767249.941,-543.076,-280.535,-5953.774,13137.303,0
1488767249.941,-405.764,-344.263,-5749.615,13995.525,0
1488767249.955,-260.688,-351.440,-5036.508,14579.711,0
1488767249.955,-445.574,-280.227,-5616.267,14112.052,0
1488767249.969,-456.292,-272.757,-4838.407,13815.687,0
1488767249.969,-258.008,-353.991,-4821.767,14511.834,0
1488767249.971,-324.077,-284.801,-5575.880,14346.029,0
1488767249.971,-516.794,-242.968,-6541.084,14026.186,0
1488767249.985,-301.834,-353.501,-6274.566,14989.058,0
1488767249.985,-263.364,-319.208,-6867.236,15206.322,0
1488767249.999,-506.397,-243.481,-6917.788,15098.138,0
1488767249.999,-372.096,-325.972,-6659.583,15992.552,0
1488767250.001,-258.038,-351.575,-6040.194,16524.252,0
1488767250.001,-409.257,-250.809,-6576.253,16089.997,0
1488767250.015,-449.757,-280.665,-5777.854,15794.597,0
1488767250.015,-236.124,-342.743,-5772.653,16502.902,0
1488767250.029,-324.618,-292.410,-6570.007,16293.987,0
1488767250.029,-502.199,-235.401,-7487.479,16002.529,0
1488767250.031,-279.980,-337.219,-7244.994,16973.518,0
1488767250.031,-270.456,-318.308,-7874.086,17153.592,0
1488767250.045,-504.309,-241.138,-7893.922,17052.689,0
1488767250.045,-357.347,-315.891,-7627.815,17966.607,0
1488767250.059,-225.914,-320.494,-6997.035,18510.803,0
1488767250.059,-420.677,-255.310,-7557.013,18034.406,0
1488767250.061,-450.286,-278.950,-6734.443,17766.049,0
1488767250.061,-239.440,-335.456,-5780.744,18453.229,0
1488767250.075,-318.075,-280.003,-6574.699,18245.873,0
1488767250.075,-498.888,-238.147,-7487.593,17956.861,0
1488767250.089,-280.917,-337.393,-7208.741,17969.115,0
1488767250.089,-253.561,-300.639,-7842.265,18161.205,0
1488767250.091,-501.180,-222.556,-7918.955,18032.797,0
1488767250.091,-356.710,-314.288,-7547.353,18983.803,0
1488767250.105,-214.880,-299.405,-7016.256,19507.383,0
1488767250.105,-405.577,-210.143,-7741.340,18940.059,0
1488767250.119,-466.384,-301.456,-6808.005,18662.027,0
1488767250.119,-236.539,-345.314,-6620.103,19507.713,0
1488767250.121,-293.670,-236.201,-7548.780,19280.211,0
1488767250.121,-519.302,-231.887,-7811.748,18756.090,0
1488767250.135,-284.068,-364.582,-7143.242,18927.615,0
1488767250.135,-242.258,-287.811,-7771.194,19195.738,0
1488767250.149,-494.858,-191.047,-8148.318,18920.197,0
1488767250.149,-381.963,-365.270,-7637.098,19846.670,0
1488767250.151,-218.150,-328.487,-6846.070,20555.787,0
1488767250.151,-398.716,-202.282,-7682.098,19986.996,0
1488767250.165,-454.744,-297.862,-6927.852,19573.094,0
1488767250.165,-230.116,-355.535,-6580.765,20487.494,0
1488767250.179,-304.764,-244.358,-7522.457,20279.092,0
1488767250.179,-527.992,-240.952,-7783.797,19758.869,0
1488767250.181,-244.741,-327.460,2733.182,1338.390,0
1488767250.194,-185.170,-237.932,2076.860,1582.956,0
1488767250.194,-415.080,-113.628,1657.737,1293.192,0
1488767250.196,-253.032,-244.876,2245.086,2272.524,0
1488767250.196,-71.335,-192.193,3028.017,2975.096,0
1488767250.210,-256.969,-59.006,2129.772,2361.502,0
1488767250.210,-292.887,-140.435,2924.458,1965.592,0
1488767250.224,-45.445,-181.305,3309.037,2922.182,0
1488767250.224,-113.104,-66.297,3308.873,2681.456,0
1488767250.226,-312.908,-52.693,3048.164,2162.316,0
1488767250.226,-79.985,-189.768,3794.560,2385.725,0
1488767250.240,-56.927,-129.700,3110.076,2617.694,0
1488767250.240,-314.741,-28.463,2656.946,2294.829,0
1488767250.254,-212.520,-216.763,3280.034,2303.496,0
1488767250.254,-88.361,-216.024,4026.898,2986.138,0
1488767250.256,-298.936,-98.889,3066.753,2343.788,0
1488767250.256,-370.813,-217.799,3903.064,1955.250,0
1488767250.270,-130.003,-264.143,4303.321,2927.876,0
1488767250.270,-203.821,-157.947,4240.057,2653.779,0
1488767250.284,-427.512,-155.518,3950.869,2095.860,0
1488767250.284,-188.740,-288.961,4779.873,2375.618,0
1488767250.286,-154.147,-216.215,4047.907,2588.981,0
1488767250.286,-377.853,-90.044,3562.225,2249.372,0
1488767250.300,-267.408,-274.365,4256.423,2293.658,0
1488767250.300,-103.431,-220.590,5001.899,2978.454,0
1488767250.314,-274.845,-80.896,4991.502,2331.811,0
1488767250.314,-338.854,-182.479,5868.196,1958.494,0
1488767250.316,-103.081,-232.650,6277.111,2931.696,0
1488767250.316,-162.684,-104.246,6185.166,2650.587,0
1488767250.330,-394.715,-117.137,5900.918,2091.176,0
1488767250.330,-176.381,-264.725,6759.141,2381.319,0
1488767250.344,-127.536,-185.733,6020.448,2607.077,0
1488767250.344,-389.056,-82.622,5472.874,2213.030,0
1488767250.346,-269.703,-267.126,6242.300,2302.400,0
1488767250.346,-137.223,-246.570,6982.514,3004.830,0
1488767250.360,-331.978,-117.478,6910.420,2310.589,0
1488767250.360,-408.642,-247.073,7834.705,1955.825,0
1488767250.374,-169.926,-302.737,8251.836,1969.983,0
1488767250.374,-270.593,-206.272,8093.040,1631.959,0
1488767250.376,-500.170,-211.007,7829.415,1073.944,0
1488767250.376,-273.920,-368.124,8720.291,1387.136,0
1488767250.390,-253.550,-302.696,7943.289,1583.307,0
1488767250.390,-510.904,-195.864,7373.403,1176.436,0
1488767250.404,-388.260,-384.733,8188.438,1283.537,0
1488767250.404,-251.635,-370.258,8910.700,1978.300,0
1488767250.406,-443.088,-230.466,8795.114,1265.633,0
1488767250.406,-517.348,-360.562,9766.208,926.966,0
1488767250.420,-271.590,-402.886,10209.702,967.953,0
1488767250.420,-367.167,-299.155,10009.168,617.001,0
1488767250.434,-598.924,-311.638,9746.328,48.028,0
1488767250.434,-346.894,-450.392,10697.555,407.823,0
1488767250.436,-305.065,-359.750,9896.667,597.576,0
1488767250.436,-567.483,-254.758,9298.395,168.254,0
1488767250.450,-423.162,-419.946,10175.986,321.682,0
1488767250.450,-277.615,-394.535,10874.564,1008.853,0
1488767250.464,-465.750,-251.785,10729.991,273.611,0
1488767250.464,-509.137,-353.424,10773.873,-28.539,0
1488767250.466,-271.820,-404.840,11198.638,-0.724,0
1488767250.466,-383.123,-318.918,10951.004,-391.603,0
1488767250.480,-583.776,-291.660,10736.054,-922.998,0
1488767250.480,-334.768,-439.779,11679.161,-571.281,0
1488767250.494,-291.035,-350.000,10856.771,-393.133,0
1488767250.494,-534.043,-226.148,10276.743,-812.753,0
1488767250.496,-395.706,-397.948,11171.067,-650.395,0
1488767250.496,-256.411,-374.863,11861.690,33.953,0
1488767250.510,-447.486,-233.385,11687.744,-723.515,0
1488767250.510,-529.809,-375.179,11723.215,-1043.602,0
1488767250.524,-275.247,-409.579,12156.712,-1003.415,0
1488767250.524,-341.369,-279.672,11938.228,-1361.757,0
1488767250.526,-553.653,-266.502,11724.118,-1900.191,0
1488767250.526,-311.728,-419.692,12676.280,-1539.591,0
1488767250.540,-272.308,-322.722,11836.643,-1373.407,0
1488767250.540,-540.900,-218.010,11236.078,-1809.861,0
1488767250.554,-405.401,-405.345,12142.587,-1646.160,0
1488767250.554,-243.918,-360.622,12844.437,-951.823,0
1488767250.556,-439.567,-219.416,12664.211,-1711.580,0
1488767250.556,-489.745,-326.931,12747.523,-1990.936,0
1488767250.570,-252.855,-386.133,13157.343,-1973.547,0
1488767250.570,-328.603,-263.126,12907.652,-2349.242,0
1488767250.584,-538.602,-250.293,12722.527,-2875.297,0
1488767250.584,-299.299,-398.800,13665.492,-2515.042,0
1488767250.586,-267.403,-315.922,12810.503,-2358.783,0
1488767250.586,-521.510,-200.081,12223.784,-2784.570,0
1488767250.600,-373.472,-376.671,13160.129,-2595.060,0
1488767250.600,-244.739,-357.001,13817.430,-1940.602,0
1488767250.614,-448.784,-221.978,13631.526,-2705.879,0
1488767250.614,-485.368,-327.417,13747.499,-2962.844,0
1488767250.616,-227.878,-360.048,14157.839,-2924.575,0
1488767250.616,-326.877,-249.678,13895.138,-3324.917,0
1488767250.630,-551.499,-263.650,13698.501,-3863.182,0
1488767250.630,-303.803,-396.888,14652.278,-3489.852,0
1488767250.644,-267.517,-312.158,13789.154,-3337.774,0
1488767250.644,-499.738,-182.902,13231.053,-3750.226,0
1488767250.646,-370.519,-373.704,14152.898,-3564.340,0
1488767250.646,-255.044,-369.884,14783.519,-2925.877,0
1488767250.660,-434.242,-214.657,14612.426,-3678.072,0
1488767250.660,-472.912,-320.422,14751.327,-3926.850,0
1488767250.674,-240.266,-373.988,15124.657,-3925.101,0
1488767250.674,-328.449,-251.807,14849.379,-4322.746,0
1488767250.676,-541.321,-256.445,14685.795,-4845.689,0
1488767250.676,-268.545,-367.943,15650.276,-4444.901,0
1488767250.690,-254.051,-305.387,14752.498,-4324.096,0
1488767250.690,-502.175,-185.757,14184.456,-4750.729,0
1488767250.704,-364.182,-368.418,15131.396,-4545.055,0
1488767250.704,-215.314,-328.227,15765.140,-3897.119,0
1488767250.706,-442.303,-216.327,15553.132,-4691.134,0
1488767250.706,-460.460,-305.142,15730.974,-4906.877,0
1488767250.720,-230.488,-364.244,16090.548,-3933.952,0
1488767250.720,-310.028,-239.950,15816.934,-4325.063,0
1488767250.734,-541.543,-249.176,15612.017,-4872.805,0
1488767250.735,-279.539,-373.019,16569.871,-4495.193,0
1488767250.736,-254.659,-299.140,15747.938,-4324.633,0
1488767250.736,-518.621,-192.891,15155.721,-4752.279,0
1488767250.750,-352.085,-351.399,16101.017,-4547.582,0
1488767250.750,-214.537,-327.840,16781.576,-3876.847,0
1488767250.764,-422.715,-198.684,16581.609,-4650.692,0
1488767250.764,-465.900,-310.376,16712.385,-4903.667,0
1488767250.766,-220.422,-354.395,17091.400,-4894.947,0
1488767250.766,-313.527,-244.653,16843.654,-5274.730,0
1488767250.780,-530.116,-236.719,16674.473,-5794.711,0
1488767250.780,-286.089,-375.667,17595.865,-5442.119,0
1488767250.794,-250.513,-296.679,16756.561,-5283.444,0
1488767250.794,-492.107,-184.712,16189.192,-5694.437,0
1488767250.796,-361.916,-360.296,17093.670,-5518.712,0
1488767250.796,-214.704,-330.835,17761.648,-4861.168,0
1488767250.810,-411.101,-196.635,17575.604,-5619.280,0
1488767250.810,-455.752,-301.696,17728.619,-5851.292,0
1488767250.824,-226.550,-355.756,18077.777,-4889.455,0
1488767250.824,-300.806,-233.418,17824.609,-5275.592,0
1488767250.826,-512.271,-227.444,17678.809,-5779.215,0
1488767250.826,-264.703,-368.490,18592.932,-5421.121,0
1488767250.840,-236.618,-285.870,17739.285,-5276.609,0
1488767250.840,-501.814,-186.649,17166.859,-5701.840,0
1488767250.854,-356.023,-361.097,18094.955,-5501.338,0
1488767250.854,-208.756,-319.739,18749.727,-4843.619,0
1488767250.856,-414.061,-195.513,18547.170,-5620.942,0
1488767250.856,-450.836,-297.919,18709.230,-5851.271,0
1488767250.870,-229.308,-358.711,19034.559,-4904.274,0
1488767250.870,-310.438,-240.737,18781.883,-5283.302,0
1488767250.884,-513.851,-236.876,18672.045,-5765.349,0
1488767250.884,-260.411,-366.905,19574.713,-5412.701,0
1488767250.886,-238.871,-296.357,18696.203,-5280.613,0
1488767250.886,-494.228,-176.888,18150.395,-5696.535,0
1488767250.902,-361.003,-366.740,19074.967,-5506.774,0
1488767250.902,-221.514,-333.468,19696.639,-4881.603,0
1488767250.929,-405.446,-184.031,19524.457,-5627.631,0
1488767250.929,-455.123,-302.152,19711.256,-5849.056,0
1488767250.929,-225.679,-353.478,20014.297,-4906.618,0
1488767250.929,-318.350,-242.084,19736.906,-5308.025,0
1488767250.932,-515.846,-230.383,19656.045,-5775.310,0
1488767250.932,-266.730,-375.940,20534.367,-5437.880,0
1488767250.944,-252.991,-297.988,19648.479,-5311.077,0
1488767250.944,-500.337,-188.283,19113.324,-5714.163,0
1488767250.946,-362.127,-368.453,20041.629,-5519.226,0
1488767250.946,-226.142,-343.102,20662.641,-4892.189,0
1488767250.960,-410.613,-191.002,20486.174,-5644.451,0
1488767250.960,-464.329,-319.184,20681.256,-5857.797,0
1488767250.974,-247.974,-377.530,20957.490,-4941.441,0
1488767250.974,-328.554,-252.709,20700.227,-5319.751,0
1488767250.976,-506.401,-228.600,20652.473,-5763.157,0
1488767250.976,-280.659,-381.307,21511.465,-5440.907,0
1488767250.990,-249.380,-294.491,20617.787,-5315.873,0
1488767250.990,-496.307,-177.269,20099.900,-5707.534,0
1488767251.004,-365.734,-366.531,21033.586,-5513.285,0
1488767251.004,-226.309,-325.210,21642.500,-4885.803,0
1488767251.006,-409.055,-183.653,21454.844,-5651.140,0
1488767251.006,-450.890,-302.238,21687.740,-5836.101,0
1488767251.020,-234.688,-367.092,21955.463,-4924.543,0
1488767251.020,-327.830,-251.740,21667.547,-5332.289,0
1488767251.034,-529.355,-239.789,21631.119,-5773.556,0
1488767251.034,-276.936,-372.889,22498.461,-5431.402,0
1488767251.036,-240.212,-288.518,21604.254,-5303.833,0
1488767251.036,-504.503,-184.166,21099.857,-5698.025,0
1488767251.050,-363.051,-358.797,22031.494,-5494.322,0
1488767251.050,-217.499,-325.805,22618.676,-4885.499,0
1488767251.064,-405.837,-182.157,22441.514,-5642.731,0
1488767251.064,-456.965,-305.376,22686.385,-5828.133,0
1488767251.066,-211.293,-342.341,22943.127,-4910.105,0
1488767251.066,-319.384,-246.403,22643.438,-5330.750,0
1488767251.080,-529.574,-241.727,22628.635,-5765.719,0
1488767251.080,-265.131,-363.793,23486.141,-5424.702,0
1488767251.094,-245.689,-289.076,22568.500,-5322.018,0
1488767251.094,-509.588,-192.349,22074.537,-5707.990,0
1488767251.096,-353.785,-354.559,23026.941,-5482.450,0
1488767251.096,-220.187,-329.006,23579.035,-4896.436,0
1488767251.110,-421.057,-194.170,23395.201,-5670.872,0
1488767251.110,-459.271,-303.854,23678.986,-5824.537,0
1488767251.124,-223.794,-349.245,23908.637,-4923.328,0
1488767251.124,-318.204,-234.933,23610.771,-5331.100,0
1488767251.126,-523.203,-242.065,22640.590,-5758.559,0
1488767251.126,-268.162,-364.135,23482.092,-5426.985,0
1488767251.140,-237.542,-275.666,22562.020,-5318.631,0
1488767251.140,-513.049,-194.553,22065.111,-5723.202,0
1488767251.154,-358.574,-362.213,23024.891,-5490.216,0
1488767251.154,-207.286,-320.781,23578.293,-4892.986,0
1488767251.169,-404.218,-179.990,23401.875,-5664.968,0
1488767251.169,-456.756,-311.212,23695.340,-5811.628,0
1488767251.171,-214.375,-346.595,23911.268,-4914.608,0
1488767251.171,-329.889,-243.952,23586.828,-5352.240,0
1488767251.184,-539.301,-247.714,22634.410,-5763.786,0
1488767251.184,-285.476,-377.747,23455.252,-5440.784,0
1488767251.186,-251.929,-297.765,1943.329,1521.629,0
1488767251.199,-511.564,-197.482,1488.938,1154.745,0
1488767251.199,-350.208,-352.452,2450.255,1393.827,0
1488767251.201,-219.960,-321.435,2976.023,1959.575,0
1488767251.201,-413.833,-186.277,2790.913,1182.943,0
1488767251.215,-478.582,-326.938,3099.318,1032.506,0
1488767251.215,-232.543,-363.930,3302.801,1931.879,0
1488767251.229,-317.469,-241.113,3001.088,1513.938,0
1488767251.229,-510.971,-231.380,2095.610,1132.109,0
1488767251.231,-267.678,-369.816,2892.005,1436.019,0
1488767251.231,-251.714,-294.504,1934.426,1516.253,0
1488767251.245,-500.709,-181.811,1503.028,1161.489,0
1488767251.245,-342.042,-347.399,2473.706,1403.953,0
1488767251.259,-222.483,-327.662,2964.963,1955.508,0
1488767251.259,-429.064,-196.468,2774.504,1174.362,0
1488767251.261,-461.148,-311.111,3134.580,1061.589,0
1488767251.261,-216.392,-343.364,3322.639,1952.813,0
1488767251.275,-312.624,-237.714,2998.158,1515.159,0
1488767251.275,-521.609,-241.270,2107.778,1134.026,0
1488767251.289,-275.481,-371.026,2893.936,1438.250,0
1488767251.289,-247.467,-290.613,1925.579,1512.193,0
1488767251.291,-497.042,-184.371,1504.668,1162.400,0
1488767251.291,-351.940,-351.870,2479.314,1408.098,0
1488767251.305,-212.103,-319.301,2980.104,1964.788,0
1488767251.305,-399.120,-180.220,2787.458,1195.648,0
1488767251.319,-440.184,-295.529,3169.300,1097.479,0
1488767251.319,-222.408,-349.907,3322.368,1957.026,0
1488767251.321,-311.721,-232.951,2979.146,1518.545,0
1488767251.321,-515.736,-235.524,2121.482,1155.895,0
1488767251.335,-264.428,-369.921,2909.780,1457.590,0
1488767251.335,-232.783,-280.064,1941.202,1534.780,0
1488767251.349,-499.224,-186.666,1493.940,1154.866,0
1488767251.349,-355.715,-357.624,1515.873,1411.608,0
1488767251.351,-238.606,-347.214,1980.625,1943.372,0
1488767251.351,-439.147,-211.940,1765.637,1147.151,0
1488767251.365,-473.064,-325.095,2182.174,1064.495,0
1488767251.365,-232.639,-354.658,2329.127,1936.556,0
1488767251.379,-324.648,-241.031,1968.193,1480.206,0
1488767251.379,-534.362,-251.476,1119.509,1114.567,0
1488767251.381,-279.494,-375.035,1918.182,1436.200,0
1488767251.381,-241.274,-284.412,1911.446,1504.878,0
1488767251.395,-496.316,-182.509,1484.925,1141.816,0
1488767251.395,-358.200,-357.323,1516.346,1410.249,0
1488767251.409,-213.857,-318.344,1989.236,1966.437,0
1488767251.409,-415.030,-191.567,1759.427,1157.942,0
1488767251.411,-463.364,-314.976,2195.392,1081.383,0
1488767251.411,-214.360,-339.009,2340.517,1960.657,0
1488767251.425,-310.565,-226.522,1966.209,1490.481,0
1488767251.425,-520.452,-241.407,1136.699,1135.119,0
1488767251.439,-233.738,-332.997,1964.158,1485.322,0
1488767251.439,-225.422,-267.494,1913.998,1515.602,0
1488767251.441,-489.362,-181.722,1490.582,1153.976,0
1488767251.441,-346.814,-351.158,1541.458,1436.127,0
1488767251.455,-209.509,-312.194,1990.943,1966.552,0
1488767251.455,-419.897,-195.066,1747.715,1152.200,0
1488767251.469,-455.303,-311.807,2224.259,1096.688,0
1488767251.469,-220.327,-348.574,2333.151,1952.267,0
1488767251.471,-311.883,-225.192,1950.010,1483.130,0
1488767251.471,-517.855,-238.346,1154.167,1147.347,0
1488767251.485,-259.224,-359.272,1956.979,1475.024,0
1488767251.485,-258.680,-296.252,1884.115,1496.160,0
1488767251.499,-499.533,-187.307,1473.650,1137.777,0
1488767251.499,-344.707,-352.229,1563.719,1445.740,0
1488767251.501,-207.510,-310.898,1980.956,1957.525,0
1488767251.501,-410.329,-186.088,1734.406,1142.227,0
1488767251.515,-464.288,-318.798,2226.213,1095.351,0
1488767251.515,-218.193,-344.424,2336.800,1952.632,0
1488767251.529,-325.704,-240.427,1918.245,1458.063,0
1488767251.529,-524.723,-247.162,1147.594,1128.410,0
1488767251.531,-265.232,-368.459,1953.596,1469.423,0
1488767251.531,-250.154,-285.715,1868.020,1482.130,0
1488767251.545,-504.206,-191.191,1465.016,1121.394,0
1488767251.545,-344.241,-358.125,1567.039,1445.802,0
1488767251.559,-210.579,-316.461,1960.231,1946.723,0
1488767251.559,-400.783,-171.523,1712.616,1127.572,0
1488767251.561,-444.360,-305.853,2243.972,1103.854,0
1488767251.561,-211.086,-342.047,2327.983,1945.494,0
1488767251.575,-315.029,-228.098,1896.728,1442.436,0
1488767251.575,-505.244,-230.709,1176.198,1146.053,0
1488767251.589,-239.481,-341.687,1984.078,1498.926,0
1488767251.589,-232.227,-267.609,1884.706,1502.716,0
1488767251.591,-493.998,-176.566,1485.228,1140.271,0
1488767251.591,-337.646,-346.851,1588.489,1463.793,0
1488767251.605,-194.843,-300.026,1975.305,1967.615,0
1488767251.605,-389.561,-163.118,1724.978,1152.830,0
1488767251.619,-433.834,-290.749,2307.417,1150.754,0
1488767251.619,-195.982,-314.105,2375.534,1990.835,0
1488767251.621,-301.885,-209.565,1901.651,1459.313,0
1488767251.621,-490.252,-213.425,1245.766,1194.558,0
1488767251.635,-240.833,-336.266,2062.487,1548.089,0
1488767251.635,-223.799,-261.144,1921.471,1536.652,0
1488767251.649,-464.279,-154.032,1518.010,1175.800,0
1488767251.649,-313.073,-325.210,1648.535,1510.557,0
1488767251.651,-204.726,-310.339,1965.418,1957.873,0
1488767251.651,-409.934,-184.676,1696.104,1119.361,0
1488767251.665,-430.994,-287.647,2320.344,1161.863,0
1488767251.665,-197.618,-320.326,2366.758,1985.328,0
1488767251.679,-300.862,-212.099,1889.255,1456.326,0
1488767251.679,-492.745,-214.788,1210.235,1175.628,0
1488767251.681,-229.473,-335.104,2013.542,1523.418,0
1488767251.681,-229.097,-270.634,1847.920,1488.330,0
1488767251.695,-490.179,-177.142,1462.677,1122.426,0
1488767251.695,-304.106,-312.624,1646.790,1504.504,0
1488767251.709,-183.713,-290.661,1978.046,1974.701,0
1488767251.709,-390.717,-159.224,1673.304,1109.460,0
1488767251.711,-437.600,-298.379,2318.255,1150.171,0
1488767251.711,-178.659,-309.232,2377.636,1998.127,0
1488767251.725,-266.726,-188.274,1897.747,1475.050,0
1488767251.725,-518.070,-246.949,1187.211,1148.807,0
1488767251.739,-243.985,-339.377,2007.518,1515.806,0
1488767251.739,-236.979,-265.512,1812.737,1465.807,0
1488767251.741,-473.976,-163.838,1459.900,1117.996,0
1488767251.741,-324.214,-339.467,1657.780,1502.138,0
1488767251.755,-196.057,-304.059,1943.914,1953.778,0
1488767251.755,-399.186,-166.515,1643.103,1088.070,0
1488767251.769,-426.580,-296.821,2366.109,1176.225,0
1488767251.769,-195.206,-318.318,3343.848,1990.328,0
1488767251.771,-306.311,-219.194,2799.988,1411.661,0
1488767251.771,-504.649,-227.732,2212.480,1170.377,0
1488767251.785,-218.500,-325.882,3033.663,1556.449,0
1488767251.785,-227.749,-263.622,2793.045,1469.339,0
1488767251.799,-497.986,-180.639,2434.168,1106.146,0
1488767251.799,-336.552,-348.437,2660.333,1516.262,0
1488767251.801,-208.679,-313.422,2925.108,1949.950,0
1488767251.801,-393.112,-169.947,2627.955,1089.425,0
1488767251.815,-439.330,-304.837,3365.248,1179.716,0
1488767251.815,-220.544,-344.346,4304.840,1965.635,0
1488767251.829,-313.106,-218.062,3772.977,1401.774,0
1488767251.829,-506.111,-240.057,3205.855,1170.114,0
1488767251.831,-233.680,-346.356,4007.920,1543.552,0
1488767251.831,-230.705,-265.052,3773.230,1468.724,0
1488767251.845,-490.325,-178.382,3437.073,1116.698,0
1488767251.845,-330.581,-347.893,3665.803,1532.330,0
1488767251.859,-204.604,-309.897,3916.015,1960.304,0
1488767251.859,-414.087,-184.272,3580.965,1068.510,0
1488767251.861,-436.822,-310.636,4356.334,1182.253,0
1488767251.861,-214.367,-338.682,5287.212,1971.909,0
1488767251.875,-296.660,-207.480,4750.181,1411.717,0
1488767251.875,-506.876,-241.876,4197.117,1179.218,0
1488767251.889,-237.803,-343.482,4989.338,1547.155,0
1488767251.889,-213.432,-247.226,4757.951,1482.721,0
1488767251.891,-491.737,-180.953,4403.468,1107.908,0
1488767251.891,-323.989,-342.719,4655.102,1543.010,0
1488767251.905,-183.408,-291.241,4895.381,1972.722,0
1488767251.905,-413.150,-175.470,4541.044,1059.390,0
1488767251.919,-426.442,-291.886,5353.105,1198.969,0
1488767251.919,-188.407,-320.051,6289.447,1998.247,0
1488767251.921,-303.128,-211.375,5709.456,1397.346,0
1488767251.921,-476.042,-212.849,5196.637,1200.343,0
1488767251.935,-228.272,-337.982,5980.081,1555.052,0
1488767251.935,-236.870,-271.302,5698.837,1450.836,0
1488767251.949,-499.430,-180.832,5368.518,1095.998,0
1488767251.949,-304.946,-319.316,5653.133,1565.615,0
1488767251.951,-187.545,-292.911,5856.975,1956.104,0
1488767251.951,-415.372,-181.265,5511.655,1053.001,0
1488767251.965,-419.288,-287.912,6346.227,1207.715,0
1488767251.965,-198.579,-327.451,7251.045,1981.337,0
1488767251.979,-305.929,-210.035,6664.371,1380.762,0
1488767251.979,-524.669,-254.379,6137.800,1159.102,0
1488767251.981,-239.294,-346.489,6943.982,1546.714,0
1488767251.981,-214.324,-246.747,6690.746,1466.265,0
1488767251.995,-490.183,-171.622,6350.412,1104.632,0
1488767251.995,-327.593,-347.173,6624.282,1547.198,0
1488767252.009,-209.590,-313.026,6815.554,1934.448,0
1488767252.009,-424.267,-188.366,6473.907,1041.891,0
1488767252.011,-445.502,-310.028,7333.506,1205.398,0
1488767252.011,-208.081,-334.420,8226.802,1984.092,0
1488767252.025,-313.744,-225.695,7637.229,1372.816,0
1488767252.025,-519.005,-259.025,7143.783,1171.243,0
1488767252.039,-243.754,-344.407,7937.238,1550.733,0
1488767252.039,-242.476,-273.852,7644.374,1439.418,0
1488767252.041,-502.399,-193.196,7337.717,1100.404,0
1488767252.041,-333.631,-352.616,7618.582,1549.541,0
1488767252.055,-217.655,-318.761,7795.985,1937.977,0
1488767252.055,-442.984,-204.400,7454.245,1042.413,0
1488767252.069,-454.843,-319.739,8316.039,1205.033,0
1488767252.069,-179.132,-309.209,9191.372,1969.167,0
1488767252.071,-278.052,-186.367,8600.236,1367.953,0
1488767252.071,-451.838,-197.250,8145.730,1186.833,0
1488767252.085,-156.575,-269.579,8930.640,1567.968,0
1488767252.085,-126.844,-166.760,8648.991,1473.053,0
1488767252.099,-387.927,-80.965,8345.177,1123.978,0
1488767252.099,-205.519,-240.128,8643.854,1598.682,0
1488767252.101,-93.989,-204.904,8811.202,1974.076,0
1488767252.101,-330.523,-91.351,8427.619,1044.513,0
1488767252.115,-312.562,-209.390,9371.231,1265.980,0
1488767252.115,-77.691,-220.018,10235.846,2037.086,0
1488767252.129,-200.554,-114.735,9604.637,1406.763,0
1488767252.129,-393.503,-149.493,9194.553,1247.963,0
1488767252.131,-146.563,-273.448,9950.591,1610.679,0
1488767252.131,-136.351,-180.581,9642.961,1497.372,0
1488767252.145,-412.935,-102.254,9352.401,1157.089,0
1488767252.145,-239.537,-268.942,9680.107,1649.546,0
1488767252.159,-117.610,-240.416,9816.081,1999.700,0
1488767252.159,-350.191,-129.114,9437.360,1080.242,0
1488767252.161,-393.256,-260.374,10373.878,1282.625,0
1488767252.161,-144.420,-301.763,11209.718,2022.439,0
1488767252.175,-257.253,-207.276,10580.782,1396.877,0
1488767252.175,-440.579,-183.586,10187.158,1251.645,0
1488767252.189,-212.219,-320.676,10945.574,1616.250,0
1488767252.189,-237.811,-260.768,10590.362,1464.077,0
1488767252.191,-457.248,-172.045,-3415.693,-1815.749,0
1488767252.204,-297.380,-304.901,-3092.381,-1325.978,0
1488767252.204,-145.153,-276.438,-2956.639,-963.000,0
1488767252.206,-384.522,-144.564,-3357.905,-1908.140,0
1488767252.206,-412.103,-290.087,-2384.612,-1682.817,0
1488767252.220,-155.167,-306.763,-1540.130,-922.456,0
1488767252.220,-245.115,-182.249,-2186.153,-1560.453,0
1488767252.234,-435.438,-201.304,-2534.697,-1668.483,0
1488767252.234,-217.774,-339.590,-1831.436,-1359.218,0
1488767252.236,-222.457,-260.822,-2187.883,-1510.168,0
1488767252.236,-454.727,-174.990,-2440.240,-1822.977,0
1488767252.250,-289.216,-333.046,-2106.392,-1322.655,0
1488767252.250,-187.044,-313.506,-2004.298,-987.494,0
1488767252.264,-398.610,-183.932,-2375.539,-1909.959,0
1488767252.264,-425.249,-317.746,-2374.397,-1683.305,0
1488767252.266,-191.795,-340.507,-1554.269,-935.932,0
1488767252.266,-293.715,-218.846,-2219.312,-1585.747,0
1488767252.280,-510.745,-267.880,-2586.960,-1732.516,0
1488767252.280,-238.811,-363.071,-1838.559,-1365.652,0
1488767252.294,-240.472,-277.149,-2213.110,-1524.666,0
1488767252.294,-508.574,-208.202,-2479.421,-1867.207,0
1488767252.296,-314.453,-356.381,-2116.028,-1339.396,0
1488767252.296,-218.504,-338.719,-2036.022,-1018.612,0
1488767252.310,-445.916,-220.809,-2423.939,-1950.348,0
1488767252.310,-462.663,-350.322,-2387.915,-1699.878,0
1488767252.324,-208.931,-352.312,-1581.101,-959.290,0
1488767252.324,-333.908,-239.806,-2256.407,-1619.734,0
1488767252.326,-522.301,-263.248,-2576.916,-1729.092,0
1488767252.326,-264.916,-374.551,-1871.390,-1390.558,0
1488767252.340,-259.356,-293.311,-2245.185,-1548.330,0
1488767252.340,-533.214,-213.152,-2493.324,-1883.294,0
1488767252.354,-367.056,-375.071,-2146.686,-1365.634,0
1488767252.354,-228.368,-329.786,-2046.226,-1024.632,0
1488767252.356,-428.751,-197.268,-2417.393,-1946.412,0
1488767252.356,-447.874,-316.078,-2358.222,-1675.896,0
1488767252.370,-222.797,-337.470,-1584.543,-958.499,0
1488767252.370,-315.475,-215.252,-2250.365,-1609.507,0
1488767252.384,-518.675,-254.869,-2571.764,-1733.885,0
1488767252.384,-259.749,-372.500,-1855.542,-1374.359,0
1488767252.386,-264.248,-279.595,-2237.749,-1534.576,0
1488767252.386,-493.908,-183.575,-2454.341,-1839.333,0
1488767252.400,-338.947,-358.400,-2120.415,-1342.373,0
1488767252.400,-228.768,-322.750,-2058.271,-1030.240,0
1488767252.414,-454.886,-208.389,-2446.914,-1967.915,0
1488767252.414,-444.749,-304.826,-2347.221,-1670.931,0
1488767252.416,-219.429,-329.072,-1597.481,-967.701,0
1488767252.416,-305.436,-207.778,-2270.091,-1625.347,0
1488767252.430,-500.946,-246.355,-2552.184,-1719.380,0
1488767252.430,-289.850,-383.037,-1857.646,-1380.704,0
1488767252.444,-237.796,-261.716,-2264.734,-1557.264,0
1488767252.444,-493.044,-186.879,-2476.434,-1876.513,0
1488767252.446,-328.416,-344.112,-2111.261,-1344.028,0
1488767252.446,-195.513,-291.665,-2039.154,-1010.244,0
1488767252.460,-418.512,-180.992,-2441.414,-1960.811,0
1488767252.460,-436.953,-320.113,-2332.592,-1666.352,0
1488767252.474,-188.177,-328.098,-1567.568,-940.933,0
1488767252.474,-305.898,-213.453,-2279.042,-1628.233,0
1488767252.476,-511.876,-248.021,-2546.322,-1712.590,0
1488767252.476,-252.393,-361.583,-1839.176,-1359.467,0
1488767252.490,-220.276,-256.441,-2246.066,-1536.514,0
1488767252.490,-489.583,-182.341,-2465.692,-1858.021,0
1488767252.504,-317.976,-339.106,-2079.152,-1313.098,0
1488767252.504,-193.947,-297.356,-2043.554,-1013.425,0
1488767252.506,-432.452,-191.990,-2466.537,-1976.247,0
1488767252.506,-418.179,-300.488,-2296.022,-1639.284,0
1488767252.520,-195.028,-322.277,-1585.835,-946.312,0
1488767252.520,-307.562,-205.283,-2309.147,-1634.738,0
1488767252.534,-491.629,-234.286,-2531.959,-1703.190,0
1488767252.534,-226.917,-337.964,-1821.612,-1346.727,0
1488767252.536,-233.536,-263.448,-2256.581,-1539.268,0
1488767252.536,-488.818,-171.818,-2467.735,-1859.770,0
1488767252.550,-309.540,-331.718,-2074.823,-1314.102,0
1488767252.550,-182.700,-286.138,-2035.710,-1005.147,0
1488767252.564,-408.425,-165.210,-2462.054,-1968.754,0
1488767252.564,-417.031,-309.275,-2295.002,-1647.809,0
1488767252.566,-192.668,-316.134,-1586.780,-958.525,0
1488767252.566,-315.790,-213.617,-2328.641,-1660.512,0
1488767252.580,-504.995,-244.550,-2531.220,-1717.182,0
1488767252.580,-247.531,-351.964,-1836.895,-1368.633,0
1488767252.594,-250.508,-282.620,-2294.284,-1576.011,0
1488767252.594,-494.824,-184.787,-2458.088,-1862.057,0
1488767252.596,-356.087,-366.089,-2087.085,-1335.230,0
1488767252.596,-217.178,-313.755,-2066.581,-1028.972,0
1488767252.610,-406.813,-169.887,-2465.037,-1974.400,0
1488767252.610,-427.454,-305.159,-2284.043,-1643.188,0
1488767252.624,-216.690,-337.547,-1597.463,-959.286,0
1488767252.624,-321.523,-217.916,-2339.844,-1663.592,0
1488767252.626,-519.573,-257.481,-2515.608,-1701.234,0
1488767252.626,-261.002,-360.313,-1826.833,-1352.669,0
1488767252.640,-217.442,-249.651,-2271.955,-1546.692,0
1488767252.640,-494.587,-189.235,-2467.059,-1861.352,0
1488767252.654,-312.055,-347.631,-2041.523,-1287.462,0
1488767252.654,-198.166,-295.877,-1062.255,-999.731,0
1488767252.656,-419.852,-173.464,-1498.974,-1977.700,0
1488767252.656,-436.749,-319.032,-1284.837,-1624.794,0
1488767252.670,-196.904,-327.017,-600.938,-942.193,0
1488767252.670,-306.752,-217.825,-1365.886,-1656.387,0
1488767252.684,-502.805,-247.744,-1514.809,-1686.205,0
1488767252.684,-276.435,-376.524,-849.602,-1357.645,0
1488767252.686,-223.652,-264.460,-1302.411,-1546.465,0
1488767252.686,-480.635,-182.965,-1481.780,-1864.095,0
1488767252.700,-335.720,-353.018,-1066.975,-1300.397,0
1488767252.700,-208.501,-298.515,-118.082,-1031.586,0
1488767252.714,-424.593,-176.248,-560.646,-1038.755,0
1488767252.714,-438.000,-313.331,-309.720,-660.238,0
1488767252.716,-210.444,-335.067,360.562,13.230,0
1488767252.716,-317.043,-214.020,-415.254,-706.686,0
1488767252.730,-502.781,-238.980,-536.262,-720.927,0
1488767252.730,-243.510,-348.054,154.776,-359.229,0
1488767252.744,-229.140,-250.960,-342.941,-591.510,0
1488767252.744,-505.833,-185.791,-528.179,-913.070,0
1488767252.746,-330.145,-347.448,-71.610,-302.477,0
1488767252.746,-200.900,-288.842,882.575,-26.965,0
1488767252.760,-408.980,-165.887,428.379,-40.484,0
1488767252.760,-436.319,-310.883,698.181,343.545,0
1488767252.774,-198.471,-322.660,1372.061,1021.935,0
1488767252.774,-309.411,-204.129,573.005,285.119,0
1488767252.776,-514.945,-251.076,445.560,268.929,0
1488767252.776,-243.000,-347.222,1151.113,632.475,0
1488767252.790,-230.185,-251.733,645.482,398.316,0
1488767252.790,-500.587,-184.031,457.739,77.698,0
1488767252.804,-325.910,-345.913,923.654,682.090,0
1488767252.804,-200.935,-303.949,1868.527,954.073,0
1488767252.806,-432.540,-189.555,1407.461,942.258,0
1488767252.806,-439.021,-315.051,1694.470,1333.630,0
1488767252.820,-209.730,-329.928,2338.277,1992.209,0
1488767252.820,-323.673,-199.453,1515.406,1240.153,0
1488767252.834,-513.391,-237.342,1422.592,1226.169,0
1488767252.834,-269.566,-359.416,2092.624,1578.028,0
1488767252.836,-251.703,-256.701,1561.255,1323.760,0
1488767252.836,-500.215,-162.379,1403.237,1017.436,0
1488767252.850,-342.517,-351.902,1873.097,1617.206,0
1488767252.850,-194.624,-281.197,2799.562,1878.009,0
1488767252.864,-418.360,-155.026,2320.656,1856.101,0
1488767252.864,-442.920,-305.479,2641.893,2267.458,0
1488767252.866,-230.492,-337.066,3264.753,2915.573,0
1488767252.866,-320.769,-191.806,2456.991,2173.791,0
1488767252.880,-531.385,-255.949,2392.575,1198.028,0
1488767252.880,-291.346,-372.279,3060.852,1553.332,0
1488767252.894,-305.651,-298.953,2504.037,1286.434,0
1488767252.894,-562.432,-216.033,2367.067,990.024,0
1488767252.896,-408.822,-404.281,2850.380,1610.438,0
1488767252.896,-287.494,-356.184,3758.351,1865.427,0
1488767252.910,-533.796,-254.319,3259.665,1810.484,0
1488767252.910,-558.307,-404.936,3618.297,2257.916,0
1488767252.924,-340.651,-431.358,4229.731,2897.575,0
1488767252.924,-440.813,-301.698,3389.720,2140.560,0
1488767252.926,-637.748,-349.198,3350.253,1180.602,0
1488767252.926,-385.202,-458.788,4035.468,1546.310,0
1488767252.940,-346.885,-346.519,3485.773,1295.112,0
1488767252.940,-604.792,-263.917,3333.481,986.664,0
1488767252.954,-421.490,-427.104,3856.212,1635.905,0
1488767252.954,-302.526,-379.590,4721.706,1860.080,0
1488767252.956,-513.625,-243.819,4249.023,1824.813,0
1488767252.956,-510.743,-382.042,4636.400,2285.529,0
1488767252.970,-288.692,-397.450,5229.326,2925.708,0
1488767252.970,-375.738,-251.936,4399.226,2176.334,0
1488767252.984,-547.172,-278.015,4395.549,1239.070,0
1488767252.984,-301.888,-391.827,5021.102,1576.635,0
1488767252.986,-301.722,-299.364,4443.096,1295.728,0
1488767252.986,-552.890,-216.471,4325.364,990.933,0
1488767253.000,-369.872,-386.195,4780.837,1610.027,0
1488767253.000,-261.544,-343.214,5599.612,1794.032,0
1488767253.014,-460.499,-191.986,5172.429,817.959,0
1488767253.014,-478.544,-347.543,5601.278,1300.404,0
1488767253.016,-228.381,-343.188,6171.304,1926.095,0
1488767253.016,-347.758,-227.455,5346.948,1174.334,0
1488767253.030,-529.633,-268.500,4418.641,273.261,0
1488767253.030,-287.084,-378.738,4971.381,567.941,0
1488767253.044,-280.672,-284.064,4389.086,273.589,0
1488767253.044,-508.608,-195.277,3417.599,71.978,0
1488767253.046,-335.153,-361.213,3860.480,684.994,0
1488767253.046,-254.257,-346.846,4669.575,855.367,0
1488767253.060,-430.384,-184.229,4301.203,-87.573,0
1488767253.060,-459.054,-337.386,4705.933,384.306,0
1488767253.074,-243.585,-356.661,5198.831,963.009,0
1488767253.074,-356.160,-237.895,4417.218,232.345,0
1488767253.076,-538.039,-290.183,3534.123,-633.726,0
1488767253.076,-279.917,-390.075,4073.691,-342.423,0
1488767253.090,-256.282,-274.926,3519.012,-615.548,0
1488767253.090,-516.093,-205.358,2550.516,-826.905,0
1488767253.104,-360.287,-389.339,2975.363,-230.172,0
1488767253.104,-220.409,-318.121,3801.139,-30.026,0
1488767253.106,-413.496,-168.258,3419.340,-978.595,0
1488767253.106,-449.586,-332.660,3835.761,-503.076,0
1488767253.120,-236.818,-358.080,4307.039,53.905,0
1488767253.120,-329.279,-218.651,3457.195,-723.231,0
1488767253.134,-504.857,-259.880,2559.698,-1601.053,0
1488767253.134,-250.276,-363.838,3130.715,-1294.469,0
1488767253.136,-269.637,-282.235,2489.303,-1634.179,0
1488767253.136,-510.079,-199.836,2432.846,-1890.688,0
1488767253.150,-318.856,-362.032,2926.025,-1237.811,0
1488767253.150,-232.728,-326.168,3717.539,-1086.478,0
1488767253.164,-434.156,-177.378,3244.606,-1123.679,0
1488767253.164,-450.978,-338.485,3711.318,-601.453,0
1488767253.166,-220.396,-348.430,4245.639,6.163,0
1488767253.166,-324.893,-206.125,3360.143,-798.102,0
1488767253.180,-505.511,-246.097,2468.547,-1677.637,0
1488767253.180,-280.842,-389.253,3063.073,-1357.084,0
1488767253.194,-240.393,-260.995,2491.501,-1628.620,0
1488767253.194,-488.966,-175.730,2431.573,-1895.607,0
1488767253.209,-320.466,-361.551,1986.319,744.786,0
1488767253.209,-228.964,-327.105,2794.109,917.489,0
1488767253.209,-433.608,-185.290,2290.442,856.312,0
1488767253.212,-414.188,-311.848,2800.745,1408.244,0
1488767253.212,-194.011,-331.292,3310.197,2003.661,0
1488767253.225,-316.706,-202.959,2381.370,1173.021,0
1488767253.225,-492.900,-236.046,1471.695,260.127,0
1488767253.239,-250.235,-346.799,2057.403,609.888,0
1488767253.239,-240.692,-256.396,1433.618,288.017,0
1488767253.254,-492.395,-171.151,1383.443,21.736,0
1488767253.254,-328.257,-349.783,1881.779,668.172,0
1488767253.256,-218.971,-305.939,2686.693,840.845,0
1488767253.256,-432.392,-173.062,2247.760,815.496,0
1488767253.269,-419.993,-305.974,2774.388,1403.930,0
1488767253.269,-200.384,-320.900,3263.158,1981.552,0
1488767253.271,-299.327,-186.636,2412.387,1198.623,0
1488767253.271,-483.872,-234.107,1591.202,356.719,0
1488767253.285,-236.472,-347.732,2148.101,679.370,0
1488767253.285,-247.677,-260.407,1518.957,348.216,0
1488767253.299,-501.541,-192.638,545.988,113.766,0
1488767253.299,-310.842,-346.427,1046.097,786.467,0
1488767253.301,-213.674,-311.846,1822.068,931.416,0
1488767253.301,-408.795,-159.537,1390.884,913.566,0
1488767253.315,-431.029,-325.057,1882.518,1448.542,0
1488767253.315,-232.057,-350.372,2296.893,1966.045,0
1488767253.375,-318.494,-211.344,1439.622,1178.590,0
1488767253.375,-480.285,-238.492,655.234,368.431,0
1488767253.375,-234.411,-341.429,1172.277,661.255,0
1488767253.375,-229.660,-245.438,544.890,336.060,0
1488767253.377,-483.434,-173.836,-406.297,126.966,0
1488767253.377,-328.881,-359.791,18.501,737.873,0
1488767253.389,-203.189,-298.863,790.684,888.821,0
1488767253.389,-409.025,-153.880,369.826,876.367,0
1488767253.389,-413.173,-308.820,881.210,1435.996,0
1488767253.389,-224.650,-345.632,1276.598,1944.490,0
1488767253.392,-310.047,-190.496,435.307,1172.574,0
1488767253.392,-471.345,-226.197,-336.114,381.339,0
1488767253.404,-218.586,-327.443,157.955,665.270,0
1488767253.404,-247.933,-258.934,-496.711,305.570,0
1488767253.404,-481.026,-165.846,-1391.501,128.209,0
1488767253.404,-304.082,-332.788,-962.862,762.487,0
1488767253.406,-214.371,-298.345,-223.336,887.663,0
1488767253.406,-411.037,-156.623,-613.134,-81.891,0
1488767253.419,-402.561,-295.501,-74.680,499.879,0
1488767253.419,-179.908,-297.472,327.971,1032.573,0
1488767253.421,-287.052,-159.441,-536.691,238.454,0
1488767253.421,-457.667,-205.693,-1285.647,-562.000,0
1488767253.435,-192.779,-298.517,-782.374,-269.950,0
1488767253.435,-202.873,-214.898,-1434.796,-616.908,0
1488767253.449,-458.132,-146.486,-2343.075,-816.645,0
1488767253.449,-288.829,-317.086,-1888.915,-177.961,0
1488767253.451,-166.566,-257.503,-1143.641,-36.378,0
1488767253.451,-388.054,-134.332,-1578.883,-76.148,0
1488767253.465,-374.693,-267.648,-1003.464,526.019,0
1488767253.465,-190.557,-306.288,-634.274,1020.334,0
1488767253.479,-311.225,-187.664,-1511.438,200.522,0
1488767253.479,-474.891,-230.352,-2205.866,-555.723,0
1488767253.481,-233.740,-332.253,-1822.315,-323.264,0
1488767253.481,-209.193,-225.660,-2465.439,-667.387,0
1488767253.495,-477.856,-168.217,-3292.739,-828.423,0
1488767253.495,-300.460,-331.138,-2887.545,-185.585,0
1488767253.509,-199.264,-281.018,-2188.125,-98.874,0
1488767253.509,-436.800,-172.791,-2574.973,-120.875,0
1488767253.511,-421.520,-318.535,-1994.124,491.026,0
1488767253.511,-203.553,-319.006,-1651.985,992.949,0
1488767253.525,-320.126,-193.093,-2526.044,167.815,0
1488767253.525,-503.987,-253.960,-3250.736,-611.247,0
1488767253.539,-254.321,-355.756,-2780.580,-322.185,0
1488767253.539,-251.708,-253.419,-3452.105,-678.444,0
1488767253.541,-510.839,-191.466,-4366.350,-885.350,0
1488767253.541,-317.951,-354.316,-3869.147,-198.542,0
1488767253.555,-222.960,-309.245,-3172.581,-111.288,0
1488767253.555,-430.584,-167.519,-3605.430,-140.074,0
1488767253.569,-418.196,-316.775,-2993.599,491.122,0
1488767253.569,-226.026,-344.753,-2668.817,971.704,0
1488767253.571,-352.555,-223.470,-3607.827,102.589,0
1488767253.571,-532.739,-276.984,-4297.244,-664.315,0
1488767253.585,-279.587,-383.826,-3837.182,-388.301,0
1488767253.585,-289.962,-290.315,-4545.912,-778.690,0
1488767253.599,-527.277,-212.366,-5411.145,-957.225,0
1488767253.599,-374.785,-395.666,-4934.481,-280.425,0
1488767253.601,-267.799,-348.669,-4251.069,-190.651,0
1488767253.601,-463.389,-196.154,-4669.516,-210.454,0
1488767253.615,-437.933,-337.219,-3980.415,476.875,0
1488767253.615,-231.784,-352.029,-3651.806,970.031,0
1488767253.629,-356.278,-228.835,-4600.073,95.478,0
1488767253.629,-502.830,-257.741,-5210.421,-612.250,0
1488767253.631,-261.462,-368.090,-4741.043,-322.394,0
1488767253.631,-283.210,-282.815,-5496.888,-736.921,0
1488767253.645,-506.433,-195.715,-6325.107,-899.352,0
1488767253.645,-335.697,-365.484,-5798.531,-181.095,0
1488767253.659,-219.070,-311.923,-5143.714,-101.980,0
1488767253.659,-447.399,-189.495,-5612.753,-185.046,0
1488767253.661,-430.612,-329.274,-4893.345,511.093,0
1488767253.661,-224.923,-346.238,-4601.934,985.355,0
1488767253.675,-341.025,-220.781,-4620.887,79.630,0
1488767253.675,-512.839,-266.124,-5198.821,-621.497,0
1488767253.704,-256.396,-366.005,-4738.599,-324.883,0
1488767253.704,-249.221,-266.425,-5495.592,-735.053,0
1488767253.704,-516.628,-203.507,-6362.224,-937.056,0
1488767253.704,-331.239,-365.631,-5791.300,-180.241,0
1488767253.707,-216.867,-301.767,-5148.989,-103.590,0
1488767253.707,-439.059,-177.641,-5662.291,-207.215,0
1488767253.734,-454.063,-349.295,-4896.866,503.705,0
1488767253.734,-224.607,-347.611,-4591.853,1002.747,0
1488767253.734,-345.511,-220.400,-4624.581,96.409,0
1488767253.734,-508.099,-262.156,-5148.054,-583.359,0
1488767253.737,-246.798,-363.627,-4683.957,-262.373,0
1488767253.737,-280.962,-283.542,-5517.435,-741.532,0
1488767253.749,-519.672,-197.646,-6336.073,-920.763,0
1488767253.749,-315.072,-351.824,-5746.708,-127.805,0
1488767253.751,-221.363,-303.244,-5166.849,-111.647,0
1488767253.751,-455.851,-186.419,-5709.464,-253.143,0
1488767253.765,-436.035,-333.842,-4884.833,516.385,0
1488767253.765,-197.551,-329.094,-4611.366,991.148,0
1488767253.779,-348.497,-221.926,-4696.894,36.711,0
1488767253.779,-506.635,-263.259,-5193.672,-619.608,0
1488767253.781,-281.341,-391.021,-4759.348,-340.767,0
1488767253.781,-286.600,-294.111,-5573.053,-805.804,0
1488767253.795,-514.726,-210.497,-6360.792,-967.966,0
1488767253.795,-339.091,-382.334,-5764.885,-170.663,0
1488767253.809,-231.208,-316.876,-5199.799,-147.459,0
1488767253.809,-438.567,-176.392,-5723.157,-279.428,0
1488767253.811,-423.332,-324.354,-4873.413,521.798,0
1488767253.811,-217.023,-332.443,-4680.694,958.774,0
1488767253.825,-327.073,-192.315,-4781.761,2.605,0
1488767253.825,-487.739,-231.528,-5244.944,-640.647,0
1488767253.839,-254.846,-348.710,-4844.167,-368.343,0
1488767253.839,-262.008,-251.445,-5677.140,-844.967,0
1488767253.841,-505.487,-180.833,-6426.874,-989.065,0
1488767253.841,-324.410,-356.493,-5833.698,-193.314,0
1488767253.855,-213.393,-287.628,-5274.865,-177.095,0
1488767253.855,-431.134,-155.009,-5751.160,-275.720,0
1488767253.869,-403.528,-306.101,-4848.081,559.098,0
1488767253.869,-194.394,-303.605,-4639.751,999.888,0
1488767253.871,-346.189,-200.277,-4716.629,32.911,0
1488767253.871,-470.092,-231.296,-5087.803,-534.978,0
1488767253.885,-218.788,-320.852,-4696.768,-256.944,0
1488767253.885,-251.404,-240.558,-5545.625,-748.139,0
1488767253.899,-481.490,-165.541,-6248.744,-858.825,0
1488767253.899,-313.854,-353.359,-5683.572,-91.186,0
1488767253.901,-213.114,-290.291,-5155.691,888.325,0
1488767253.901,-433.795,-165.915,-5629.368,784.442,0
1488767253.915,-390.504,-313.394,-4697.638,1633.734,0
1488767253.915,-205.029,-332.165,-4580.596,2004.469,0
1488767253.929,-353.226,-219.678,-4655.502,1045.147,0
1488767253.929,-469.309,-247.780,-4985.731,499.151,0
1488767253.944,-225.189,-348.173,-4666.009,736.540,0
1488767253.944,-267.502,-267.693,-5591.503,184.908,0
1488767253.946,-504.488,-192.818,-6297.301,65.100,0
1488767253.946,-312.712,-355.358,-5748.686,840.189,0
1488767253.959,-210.053,-290.113,-5285.688,1767.114,0
1488767253.959,-436.871,-164.499,-5777.107,1651.009,0
1488767253.961,-393.942,-311.859,-4819.130,2523.028,0
1488767253.961,-212.959,-326.303,-4738.997,2867.142,0
1488767253.975,-347.008,-202.091,-4862.253,2862.688,0
1488767253.975,-473.410,-240.332,-5159.773,2317.167,0
1488767253.989,-225.105,-326.828,-4816.770,2569.373,0
1488767253.989,-263.424,-246.549,-5761.405,2024.563,0
1488767253.991,-495.144,-174.270,-6394.690,1944.035,0
1488767253.991,-295.446,-335.370,-5771.658,2766.636,0
1488767254.005,-195.268,-277.358,-5349.321,3686.597,0
1488767254.005,-414.624,-144.336,-5754.774,3639.605,0
1488767254.019,-382.661,-291.415,-5707.193,4531.655,0
1488767254.019,-197.553,-312.770,-5684.255,4863.233,0
1488767254.021,-325.794,-192.134,-5745.813,3921.590,0
1488767254.021,-470.483,-249.549,-5921.181,3450.459,0
1488767254.035,-206.650,-325.360,-5657.337,3673.086,0
1488767254.035,-229.908,-232.085,-6606.381,3121.975,0
1488767254.049,-471.947,-171.415,-7117.749,3107.528,0
1488767254.049,-294.491,-349.097,-6592.078,3873.259,0
1488767254.051,-219.773,-299.875,-6262.042,4713.003,0
1488767254.051,-397.056,-146.425,-6586.414,3744.309,0
1488767254.065,-328.913,-269.422,-6479.055,4687.349,0
1488767254.065,-156.595,-272.493,-5592.614,4943.987,0
1488767254.079,-268.747,-133.292,-5670.872,3992.141,0
1488767254.079,-369.736,-170.538,-5735.875,3606.669,0
1488767254.081,-130.825,-259.241,-5559.825,3763.729,0
1488767254.081,-146.245,-141.548,-6540.071,3178.314,0
1488767254.095,-364.221,-69.833,-6990.292,2221.783,0
1488767254.095,-177.875,-237.070,-6425.793,3030.362,0
1488767254.109,-69.914,-164.413,-6089.058,3898.514,0
1488767254.109,-266.363,-17.894,-6450.471,3856.048,0
1488767254.111,-248.933,-191.623,-6338.137,4799.185,0
1488767254.111,-62.834,-192.745,-5425.809,5074.593,0
1488767254.125,-163.187,-32.653,-5527.833,4104.329,0
1488767254.125,-311.298,-103.805,-5618.399,3683.407,0
1488767254.154,-63.386,-183.850,-5395.825,3889.051,0
1488767254.154,-90.926,-99.259,-5424.180,3305.959,0
1488767254.154,-357.705,-57.804,-5996.576,3224.512,0
1488767254.154,-183.551,-245.416,-5371.435,4064.757,0
1488767254.157,-121.687,-211.071,-5088.117,4883.419,0
1488767254.157,-343.826,-75.295,-5585.688,4755.556,0
1488767254.169,-315.087,-248.692,-5418.872,5724.386,0
1488767254.169,-144.500,-271.917,-4503.739,6009.249,0
1488767254.171,-274.413,-134.403,-4714.134,5954.429,0
1488767254.171,-432.405,-218.651,-4717.403,5542.539,0
1488767254.185,-171.486,-295.555,-4548.630,5776.917,0
1488767254.185,-238.523,-255.861,-5516.704,5148.983,0
1488767254.199,-483.348,-209.466,-5761.233,4294.046,0
1488767254.199,-301.685,-341.690,-4821.671,4859.607,0
1488767254.201,-245.085,-324.577,2324.533,1653.290,0
1488767254.214,-477.722,-239.077,2304.049,764.589,0
1488767254.214,-399.141,-312.113,3152.272,1719.110,0
1488767254.216,-264.970,-365.108,3767.214,1746.847,0
1488767254.216,-438.726,-313.645,2986.342,837.165,0
1488767254.230,-514.227,-305.621,2090.864,633.030,0
1488767254.230,-285.942,-376.122,2758.165,1501.276,0
1488767254.244,-347.538,-346.268,1952.710,921.947,0
1488767254.244,-588.316,-311.601,1885.863,173.586,0
1488767254.246,-362.005,-387.027,1978.499,834.454,0
1488767254.246,-322.690,-395.393,2305.555,1581.231,0
1488767254.260,-521.432,-281.369,1348.982,732.738,0
1488767254.260,-468.103,-367.099,2139.913,1656.218,0
1488767254.274,-297.659,-383.117,2733.710,1667.036,0
1488767254.274,-476.751,-333.199,1932.429,748.498,0
1488767254.276,-561.209,-333.973,1048.013,541.614,0
1488767254.276,-303.341,-391.220,1693.185,1425.467,0
1488767254.290,-328.522,-316.839,889.896,863.535,0
1488767254.290,-574.813,-287.303,851.570,128.365,0
1488767254.304,-378.833,-388.946,1828.605,719.772,0
1488767254.304,-308.016,-363.225,2130.174,1459.511,0
1488767254.306,-532.395,-283.361,1233.993,648.682,0
1488767254.306,-451.249,-348.248,2150.540,656.941,0
1488767254.320,-279.903,-364.479,2749.479,705.633,0
1488767254.320,-440.442,-306.386,1998.825,-164.462,0
1488767254.334,-540.309,-317.557,1187.745,-337.515,0
1488767254.334,-291.791,-373.816,1840.599,560.789,0
1488767254.336,-298.919,-285.272,1038.967,27.382,0
1488767254.336,-518.279,-231.767,79.293,-663.202,0
1488767254.350,-306.116,-341.885,124.915,-51.132,0
1488767254.350,-241.463,-310.621,400.700,685.301,0
1488767254.364,-505.773,-258.642,-564.654,-185.422,0
1488767254.364,-415.621,-336.776,410.351,-145.965,0
1488767254.366,-231.058,-338.930,978.728,-106.125,0
1488767254.366,-386.130,-258.524,160.423,-1005.631,0
1488767254.380,-469.817,-255.067,-623.737,-1175.939,0
1488767254.380,-270.079,-364.433,-40.075,-342.242,0
1488767254.394,-297.889,-291.570,-930.635,-941.374,0
1488767254.394,-515.891,-232.459,-1908.215,-1663.302,0
1488767254.396,-304.607,-333.560,-1826.518,-1022.947,0
1488767254.396,-227.549,-297.169,-1612.284,-331.333,0
1488767254.410,-415.531,-179.730,-2575.832,-1172.631,0
1488767254.410,-335.151,-244.588,-2479.015,-1097.453,0
1488767254.424,-224.355,-330.302,-2029.870,-176.131,0
1488767254.424,-335.422,-219.057,-2938.176,-1121.338,0
1488767254.426,-485.179,-263.554,-3690.958,-1321.048,0
1488767254.426,-267.145,-351.753,-3002.418,-405.171,0
1488767254.440,-271.259,-269.162,-3005.092,-1036.732,0
1488767254.440,-504.105,-218.676,-3077.399,-1806.448,0
1488767254.454,-313.499,-333.042,-2776.384,-1065.183,0
1488767254.454,-237.581,-300.896,-2598.886,-348.908,0
1488767254.456,-478.105,-214.465,-2894.798,-390.489,0
1488767254.456,-403.900,-306.459,-2514.688,-198.675,0
1488767254.470,-235.408,-338.812,-1914.664,-103.343,0
1488767254.470,-401.594,-264.331,-2092.048,-188.085,0
1488767254.484,-495.896,-262.818,-2800.272,-392.059,0
1488767254.484,-233.603,-326.703,-2741.135,-237.278,0
1488767254.486,-313.136,-295.806,-3074.502,-1021.946,0
1488767254.486,-568.339,-219.431,-3835.650,-1269.154,0
1488767254.500,-316.770,-342.646,-3602.810,-1046.452,0
1488767254.500,-230.084,-306.404,-3377.991,-225.520,0
1488767254.514,-478.578,-228.945,-3686.271,-275.967,0
1488767254.514,-421.270,-333.820,-3245.852,-43.706,0
1488767254.516,-237.886,-348.286,-2668.592,60.497,0
1488767254.516,-378.364,-259.772,-2868.980,-37.766,0
1488767254.530,-479.887,-276.590,-3462.379,-181.295,0
1488767254.530,-245.236,-353.980,-2640.463,-142.975,0
1488767254.544,-301.503,-297.187,-2847.604,-880.872,0
1488767254.544,-503.046,-219.732,-2923.513,-1684.322,0
1488767254.546,-299.257,-343.695,-2486.212,-852.469,0
1488767254.546,-213.459,-294.166,-2444.971,-200.434,0
1488767254.560,-480.293,-234.441,-2759.702,-292.832,0
1488767254.560,-396.891,-315.904,-2348.887,-77.087,0
1488767254.574,-236.051,-344.832,-1915.397,885.053,0
1488767254.574,-367.490,-236.276,-2042.412,823.300,0
1488767254.576,-447.909,-230.073,-2542.743,756.038,0
1488767254.576,-238.338,-331.824,-1873.374,1673.512,0
1488767254.590,-272.988,-261.729,-2015.262,963.170,0
1488767254.590,-506.837,-223.326,-2914.446,251.273,0
1488767254.604,-240.958,-280.105,-2615.256,1054.295,0
1488767254.604,-240.320,-298.509,-2684.986,1587.348,0
1488767254.606,-447.533,-205.126,-2778.592,644.605,0
1488767254.606,-383.011,-292.673,-2381.106,881.238,0
1488767254.621,-219.070,-306.993,-2025.253,1814.461,0
1488767254.621,-363.457,-224.119,-2184.617,1717.216,0
1488767254.634,-474.333,-243.391,-2661.582,1638.521,0
1488767254.634,-214.898,-302.403,-1814.807,1714.783,0
1488767254.636,-242.469,-238.628,-2080.089,950.030,0
1488767254.636,-520.583,-227.212,-2237.513,74.295,0
1488767254.650,-288.659,-314.060,-1562.160,1039.098,0
1488767254.650,-205.205,-264.048,-1568.559,1685.556,0
1488767254.664,-479.047,-215.906,-2087.893,1468.406,0
1488767254.664,-406.645,-312.960,-1389.505,1819.861,0
1488767254.666,-214.696,-313.275,-862.062,1918.600,0
1488767254.666,-377.434,-230.954,-1331.303,1659.882,0
1488767254.680,-513.989,-275.750,-1802.527,1521.980,0
1488767254.680,-272.203,-359.730,-1798.153,1686.642,0
1488767254.694,-293.749,-277.443,-2207.930,857.970,0
1488767254.694,-553.013,-249.586,-2378.825,-56.514,0
1488767254.696,-318.467,-348.349,-1539.077,47.981,0
1488767254.696,-253.365,-322.366,-1609.040,656.289,0
1488767254.710,-507.723,-236.564,-2184.801,417.377,0
1488767254.710,-421.517,-341.905,-1316.854,867.161,0
1488767254.724,-253.118,-369.263,-783.516,979.865,0
1488767254.724,-426.216,-284.878,-1318.188,689.533,0
1488767254.726,-504.346,-298.547,-1638.854,647.590,0
1488767254.726,-277.512,-398.013,-1565.524,859.461,0
1488767254.740,-319.937,-317.514,-2011.567,19.520,0
1488767254.740,-556.134,-259.024,-2285.656,-939.311,0
1488767254.754,-271.081,-339.529,-1336.457,-802.152,0
1488767254.754,-247.465,-337.892,-1443.747,-205.274,0
1488767254.756,-488.723,-226.356,-2164.886,-486.406,0
1488767254.756,-393.484,-336.125,-2129.699,-1.638,0
1488767254.770,-223.175,-358.748,-1537.319,147.735,0
1488767254.770,-374.656,-241.437,-2272.453,-209.193,0
1488767254.784,-468.351,-253.924,-2766.961,-393.739,0
1488767254.784,-242.587,-360.481,-2518.884,-115.585,0
1488767254.786,-262.158,-252.651,-3064.453,-935.323,0
1488767254.786,-796.630,-84.466,-3480.734,-1698.255,0
1488767254.800,-662.740,-333.004,-2897.125,-1171.107,0
1488767254.800,-192.704,-405.869,-2509.654,-281.383,0
1488767254.814,-782.774,-42.779,-2980.313,-583.252,0
1488767254.814,-1179.084,-384.407,-2727.172,-1173.162,0
1488767254.816,-960.672,-566.204,-2481.496,-1168.874,0
1488767254.816,-1095.716,-125.055,-3307.651,-1756.898,0
1488767254.830,-1167.264,-151.728,-4021.643,-2128.973,0
1488767254.831,-1074.015,-533.628,-3537.829,-1859.893,0
1488767254.844,-780.700,-383.858,-2910.175,-1550.987,0
1488767254.844,-1122.740,-145.620,-3684.185,-2158.952,0
1488767254.846,-1049.119,-251.534,-2976.048,-1726.936,0
1488767254.846,-1038.701,-246.618,-3596.628,-1637.655,0
1488767254.860,-1325.768,-127.347,-3791.540,-1822.006,0
1488767254.860,-1326.034,-179.695,-3587.003,-1653.653,0
1488767254.874,-1135.065,-284.404,-3068.715,-689.927,0
1488767254.874,-1281.561,-219.313,-3550.736,-1662.342,0
1488767254.876,-1490.075,-161.167,-3822.047,-2380.287,0
1488767254.876,-1090.588,-361.188,-3413.206,-1805.747,0
1488767254.890,-1018.369,-261.238,-3497.605,-1134.235,0
1488767254.890,-1380.765,-32.264,-4473.827,-1459.255,0
1488767254.904,-767.536,-508.017,-3691.202,-1455.868,0
1488767254.904,143.453,-481.297,-2746.323,-1150.354,0
1488767254.906,-407.146,-1.257,-3592.897,-1943.564,0
1488767254.906,-811.276,-263.281,-3082.149,-2024.791,0
1488767254.920,-811.218,-537.162,-2781.122,-1477.021,0
1488767254.920,-1065.198,-126.369,-3444.292,-2395.342,0
1488767254.935,-1136.900,-123.118,-4102.077,-2846.400,0
1488767254.935,-1044.414,-575.638,-3639.955,-2180.001,0
1488767254.936,-812.396,-385.197,-4010.829,-1624.781,0
1488767254.936,-1015.846,44.696,-4425.592,-2325.937,0
1488767254.950,-457.882,-501.274,-4216.002,-2236.885,0
1488767254.950,304.884,-526.047,-4019.622,-1507.763,0
1488767254.964,-558.793,44.757,-4578.692,-2415.590,0
1488767254.964,-1103.704,-319.595,-4908.962,-2594.761,0
1488767254.966,-905.645,-539.408,-4254.175,-1890.820,0
1488767254.966,-986.557,-122.500,-4839.649,-2588.095,0
1488767254.980,-1187.745,-116.365,-5385.749,-3457.464,0
1488767254.980,-1015.888,-569.536,-4684.666,-3000.974,0
1488767254.994,-680.608,-378.833,-4938.257,-2277.952,0
1488767254.994,-1162.684,84.112,-4979.587,-2999.128,0
1488767254.996,-484.194,-511.583,-4171.434,-2455.457,0
1488767254.996,344.787,-565.875,-3410.860,-1760.425,0
1488767255.010,-327.381,11.171,-3727.636,-1840.470,0
1488767255.010,-911.299,-139.955,-4173.051,-2009.641,0
1488767255.024,-202.759,-318.434,-3207.998,-1748.717,0
1488767255.024,-200.883,-227.014,-3880.956,-1842.940,0
1488767255.026,-464.344,-138.085,-4804.296,-2342.771,0
1488767255.026,-93.954,-349.625,-3838.603,-1886.157,0
1488767255.040,8.985,-352.444,-3256.041,-1318.876,0
1488767255.040,-387.829,-105.733,-3837.506,-1368.269,0
1488767255.054,-218.773,-269.398,-3236.969,-806.698,0
1488767255.054,-3.596,-381.505,-2311.114,-172.619,0
1488767255.056,-310.081,-167.734,-2893.570,-924.294,0
1488767255.056,-365.016,-161.113,-2503.107,-1063.736,0
1488767255.070,-163.830,-253.058,-2035.012,-208.277,0
1488767255.070,-344.243,-211.387,-2348.008,-294.930,0
1488767255.084,-434.214,-216.570,-2649.822,-334.671,0
1488767255.084,-133.221,-268.697,-2090.122,224.712,0
1488767255.086,-213.255,-238.503,-2706.521,-694.776,0
1488767255.086,-504.627,-205.246,-3313.379,-944.650,0
1488767255.100,-221.540,-287.351,-2985.119,-550.171,0
1488767255.100,-174.382,-280.180,-3008.392,119.048,0
1488767255.114,-450.869,-198.073,-3157.281,-471.616,0
1488767255.114,-320.154,-246.759,-3004.392,118.224,0
1488767255.116,-156.139,-293.425,-2140.537,411.554,0
1488767255.116,-423.287,-120.322,-2319.783,400.121,0
1488767255.130,-1399.641,-275.920,-2384.338,253.363,0
1488767255.130,-888.466,-768.185,-2105.915,1040.105,0
1488767255.144,-643.541,-467.914,-2610.757,1555.907,0
1488767255.144,-1320.112,33.523,-3184.712,1051.944,0
1488767255.146,-434.517,-618.499,-2522.516,1665.525,0
1488767255.146,467.284,-616.302,-2415.399,2251.794,0
1488767255.160,254.326,165.945,-2926.954,1452.801,0
1488767255.160,-318.989,-368.648,-2473.781,1352.467,0
1488767255.174,128.840,-393.858,-2472.032,2063.230,0
1488767255.174,112.466,-204.812,-2952.146,1302.388,0
1488767255.176,-113.095,-141.867,-3541.962,534.766,0
1488767255.176,6.592,-223.902,-3062.101,629.436,0
1488767255.190,-112.143,-176.037,-3599.704,-87.125,0
1488767255.190,-370.951,-89.771,-4568.383,-657.598,0
1488767255.204,-164.664,-204.122,-3676.853,-641.447,0
1488767255.204,-167.562,-237.377,-3944.274,-238.344,0
1488767255.206,-436.328,-153.787,-4061.419,-1854.734,0
1488767255.219,-323.236,-200.651,-3838.594,-1252.047,0
1488767255.219,-140.630,-237.871,-3076.554,-1019.278,0
1488767255.221,-319.415,-168.703,-3990.439,-1560.834,0
1488767255.221,-428.636,-172.750,-4264.338,-1623.462,0
1488767255.235,-206.977,-298.302,-3855.999,-1226.646,0
1488767255.235,-272.426,-255.991,-4520.508,-2203.818,0
1488767255.249,-538.800,-205.104,-5000.618,-2368.613,0
1488767255.249,-293.442,-312.012,-4612.063,-1962.436,0
1488767255.251,-204.898,-275.595,-4625.504,-1283.421,0
1488767255.251,-520.564,-229.884,-4810.562,-1919.750,0
1488767255.265,-364.253,-252.473,-4453.430,-1193.303,0
1488767255.265,-242.918,-349.505,-3781.499,-992.962,0
1488767255.279,-401.852,-253.118,-3818.681,-1556.120,0
1488767255.279,-498.689,-247.263,-4023.152,-1575.605,0
1488767255.281,-231.270,-332.148,-3545.442,-1081.039,0
1488767255.281,-308.357,-295.372,-4278.806,-1103.586,0
1488767255.295,-558.388,-233.804,-4772.286,-1278.670,0
1488767255.295,-273.596,-312.050,-4314.435,-807.145,0
1488767255.309,-235.062,-319.818,-4416.403,-185.680,0
1488767255.309,-512.301,-224.108,-4728.890,-870.490,0
1488767255.311,-418.143,-302.003,-4478.042,-277.650,0
1488767255.311,-162.418,-340.621,-4240.512,-210.951,0
1488767255.325,-325.347,-238.430,-4615.990,-614.363,0
1488767255.325,-678.595,-195.430,-4944.121,-693.776,0
1488767255.339,-133.028,-536.479,-4460.577,-503.649,0
1488767255.339,66.613,-408.666,-5211.339,-439.436,0
1488767255.341,-459.961,-36.133,-5248.536,-735.951,0
1488767255.341,299.300,-599.459,-4793.254,-64.476,0
1488767255.355,1269.877,-619.127,-4642.972,227.369,0
1488767255.355,1218.162,132.075,-4766.493,-608.652,0
1488767255.369,730.460,-438.589,-4010.515,-1503.849,0
1488767255.369,1245.559,-688.766,-3210.306,-1211.649,0
1488767255.371,939.702,-44.234,-3586.476,-1993.744,0
1488767255.371,460.561,-155.821,-4323.708,-2403.529,0
1488767255.385,936.046,-558.014,-4040.289,-1683.873,0
1488767255.385,1237.686,-381.365,-3620.640,-919.327,0
1488767255.399,915.367,-141.318,-4173.184,-1499.165,0
1488767255.399,1079.195,-164.894,-3923.559,-1208.779,0
1488767255.401,1001.304,-151.443,-4728.751,-1907.549,0
1488767255.401,699.913,-37.393,-5498.389,-2139.939,0
1488767255.415,817.486,-89.329,-4767.820,-1943.502,0
1488767255.415,989.516,-85.393,-4399.637,-1043.400,0
1488767255.429,820.211,5.069,-4400.333,-1691.630,0
1488767255.429,698.312,-17.808,-4575.207,-1734.044,0
1488767255.431,1003.497,-71.191,-4332.448,-1427.161,0
1488767255.431,922.985,-19.567,-4986.021,-1443.515,0
1488767255.445,679.297,34.813,-5204.102,-1463.804,0
1488767255.445,919.580,-91.472,-4986.547,-1152.534,0
1488767255.459,974.221,-53.537,-5096.511,-561.037,0
1488767255.459,729.535,30.041,-5969.142,-1011.766,0
1488767255.461,847.904,-44.226,-5588.620,-265.793,0
1488767255.461,999.967,-87.908,-5060.125,-147.704,0
1488767255.475,823.051,-25.704,-5924.641,-647.829,0
1488767255.475,715.174,-32.055,-5966.124,-1534.036,0
1488767255.489,958.968,-125.275,-5713.465,-1183.688,0
1488767255.489,881.324,-93.425,-6442.753,-1222.755,0
1488767255.491,621.846,-62.120,-6659.877,-1229.303,0
1488767255.491,908.040,-121.865,-6334.351,-803.895,0
1488767255.505,910.652,-154.940,-6560.102,-287.970,0
1488767255.505,668.905,-48.497,-7518.272,-785.897,0
1488767255.519,758.964,-143.363,-7153.360,-55.339,0
1488767255.519,942.965,-156.707,-6632.772,82.515,0
1488767255.521,755.450,-89.421,-7526.316,-440.880,0
1488767255.521,642.438,-115.582,-7531.260,-1297.885,0
1488767255.535,934.732,-156.283,-7479.053,-1050.070,0
1488767255.535,817.325,-151.565,-8200.125,-1110.690,0
1488767255.549,584.412,-106.512,-9165.184,-1965.044,0
1488767255.549,852.938,-170.730,-8195.628,-1716.837,0
1488767255.551,847.396,-208.230,-8465.790,-1253.637,0
1488767255.551,672.638,-69.523,-9077.253,-1532.805,0
1488767255.565,748.193,-158.708,-8922.774,-889.062,0
1488767255.565,880.075,-207.548,-8627.077,45.832,0
1488767255.579,717.868,-133.425,-9324.830,-378.568,0
1488767255.579,619.292,-160.232,-9280.484,-1158.527,0
1488767255.583,857.854,-232.607,-8480.096,-1068.409,0
1488767255.583,764.761,-211.426,-9115.804,-1089.154,0
1488767255.595,521.630,-181.408,-9978.161,-1873.920,0
1488767255.595,771.442,-266.300,-9212.328,-1725.672,0
1488767255.609,783.475,-272.437,-9459.442,-1255.782,0
1488767255.609,542.633,-204.223,-9979.909,-1518.854,0
1488767255.611,667.275,-256.596,-9896.792,-867.372,0
1488767255.611,785.016,-317.022,-9677.228,11.121,0
1488767255.625,590.818,-266.199,-10283.301,-392.265,0
1488767255.625,500.380,-291.207,-10251.529,-1170.389,0
1488767255.639,700.863,-384.649,-9586.259,-1155.734,0
1488767255.639,670.409,-316.166,-10105.996,-2090.757,0
1488767255.641,408.736,-311.507,-10886.498,-2806.563,0
1488767255.641,614.952,-415.320,-10301.390,-2797.204,0
1488767255.655,698.507,-362.185,-10488.690,-2282.648,0
1488767255.655,430.719,-306.646,-10935.183,-2505.972,0
1488767255.669,523.399,-392.940,-9980.152,-1925.923,0
1488767255.669,725.602,-368.337,-9709.875,-1002.372,0
1488767255.684,522.054,-316.216,-10236.778,-1345.736,0
1488767255.684,418.519,-361.555,-10270.016,-2159.198,0
1488767255.686,647.855,-424.980,-9638.834,-1193.931,0
1488767255.686,610.404,-353.946,-10116.195,-2103.916,0
1488767255.699,399.608,-300.946,-10849.065,-2774.562,0
1488767255.699,616.730,-399.156,-10316.031,-1812.176,0
1488767255.703,636.621,-397.643,-10536.850,-1342.252,0
1488767255.703,407.930,-323.483,-10898.255,-1501.609,0
1488767255.715,514.620,-390.244,-9997.308,-946.367,0
1488767255.715,680.400,-397.346,-9780.081,-85.840,0
1488767255.729,512.213,-324.161,-10240.907,-386.176,0
1488767255.729,400.446,-361.598,-10292.249,-1206.553,0
1488767255.731,669.676,-391.682,-9665.660,-230.778,0
1488767255.731,629.042,-326.108,-10124.382,-1140.078,0
1488767255.745,415.441,-280.262,-10832.001,-1789.976,0
1488767255.745,647.493,-352.719,-10306.023,-829.863,0
1488767255.759,676.228,-358.157,-10539.393,-374.031,0
1488767255.759,451.030,-270.058,-10878.654,-504.168,0
1488767255.761,548.774,-349.924,-9979.805,39.211,0
1488767255.761,696.618,-367.587,-9798.085,875.208,0
1488767255.775,530.308,-302.126,-10272.144,576.326,0
1488767255.775,478.612,-306.352,-10221.828,-165.004,0
1488767255.789,692.977,-370.835,-9631.068,760.103,0
1488767255.789,641.135,-311.085,-10159.419,-175.770,0
1488767255.791,413.401,-288.947,-10845.044,-824.223,0
1488767255.791,629.543,-372.350,-10290.695,154.103,0
1488767255.805,707.780,-322.211,-10541.979,624.999,0
1488767255.805,494.276,-235.541,-10905.067,467.837,0
1488767255.819,553.559,-353.953,-10847.254,1076.313,0
1488767255.819,710.985,-354.986,-10736.038,1910.709,0
1488767255.821,568.023,-259.433,-11336.270,1531.214,0
1488767255.821,515.691,-278.237,-11089.098,861.454,0
1488767255.835,719.233,-351.794,-10489.785,1837.095,0
1488767255.835,668.849,-266.025,-11248.857,1769.395,0
1488767255.849,446.778,-254.534,-11947.332,1061.956,0
1488767255.849,654.090,-379.334,-11916.013,1294.508,0
1488767255.851,737.413,-307.418,-12259.791,1787.205,0
1488767255.851,478.978,-200.014,-13141.005,1365.785,0
1488767255.865,555.072,-369.745,-12854.362,1984.976,0
1488767255.865,769.142,-321.390,-12466.989,2049.465,0
1488767255.879,627.123,-185.809,-13363.959,1580.945,0
1488767255.879,490.714,-273.921,-13361.695,667.041,0
1488767255.881,742.415,-334.654,-13296.817,901.890,0
1488767255.881,636.048,-282.764,-14099.785,849.135,0
1488767255.895,410.274,-259.336,-14209.641,-71.385,0
1488767255.895,595.323,-412.014,-14008.305,220.366,0
1488767255.909,687.461,-402.101,-14353.086,716.675,0
1488767255.909,435.781,-253.389,-15236.398,286.269,0
1488767255.911,523.139,-373.003,-14897.352,914.892,0
1488767255.911,669.999,-393.280,-14524.665,989.269,0
1488767255.925,520.729,-290.566,-15491.127,477.359,0
1488767255.925,636.862,-152.842,-15492.383,-467.916,0
1488767255.939,849.544,-230.613,-15471.636,-264.822,0
1488767255.939,802.003,-163.832,-16284.537,-318.804,0
1488767255.941,557.275,-141.013,-16342.726,-1203.941,0
1488767255.941,773.712,-307.031,-16234.356,-970.723,0
1488767255.955,848.651,-242.437,-16616.033,-503.937,0
1488767255.955,619.907,-134.461,-17356.932,-834.656,0
1488767255.969,669.178,-321.639,-16970.697,-156.898,0
1488767255.969,835.886,-300.465,-16726.678,793.592,0
1488767255.971,720.264,-161.175,-17480.805,410.095,0
1488767255.971,603.796,-224.566,-17257.293,-343.255,0
1488767255.985,862.976,-298.231,-16328.386,-161.607,0
1488767255.985,793.919,-217.728,-17083.936,-194.581,0
1488767255.999,540.470,-186.019,-17935.869,-962.132,0
1488767255.999,749.775,-336.258,-17904.721,-768.108,0
1488767256.001,842.033,-253.810,-18252.850,-274.118,0
1488767256.001,611.711,-148.990,-18850.025,-523.745,0
1488767256.015,585.218,-377.360,-18573.141,81.074,0
1488767256.015,790.080,-346.309,-18377.789,1019.532,0
1488767256.029,667.595,-198.985,-19096.709,660.909,0
1488767256.029,517.782,-309.787,-18895.699,-105.882,0
1488767256.031,746.553,-391.470,-18100.943,-5.288,0
1488767256.031,696.255,-304.893,-18885.051,-61.237,0
1488767256.045,458.644,-241.336,-19661.457,-771.003,0
1488767256.045,725.989,-356.244,-18761.928,-656.395,0
1488767256.059,824.279,-257.232,-19175.299,-212.681,0
1488767256.059,566.765,-162.360,-19778.857,-470.951,0
1488767256.061,656.229,-328.015,-19449.824,200.689,0
1488767256.061,785.994,-318.305,-19363.879,1043.114,0
1488767256.075,637.457,-206.846,-20117.098,655.144,0
1488767256.075,514.545,-295.639,-19893.623,-99.380,0
1488767256.089,783.864,-331.546,-19134.422,-21.802,0
1488767256.089,726.816,-227.994,-19890.072,-44.548,0
1488767256.091,485.375,-227.966,-20692.393,-789.951,0
1488767256.091,708.526,-350.354,-19744.629,-629.945,0
1488767256.105,785.674,-280.023,-20198.412,-216.149,0
1488767256.105,537.872,-184.661,-20799.355,-476.428,0
1488767256.119,597.443,-353.200,-20454.932,169.601,0
1488767256.119,790.768,-322.037,-20319.594,1062.994,0
1488767256.121,675.411,-153.833,-21109.547,653.620,0
1488767256.121,523.496,-286.349,-20872.260,-125.685,0
1488767256.135,792.872,-318.879,-20035.771,11.803,0
1488767256.135,719.233,-239.307,-20843.908,-48.742,0
1488767256.149,465.204,-237.401,-21708.102,-848.594,0
1488767256.149,684.473,-357.703,-21646.859,-636.054,0
1488767256.151,771.169,-260.348,-22073.635,-186.681,0
1488767256.151,599.268,-88.520,-22752.486,-471.684,0
1488767256.165,632.511,-287.441,-22330.545,226.270,0
1488767256.165,798.904,-271.369,-22216.574,1104.725,0
1488767256.179,615.612,-168.546,-22216.707,553.827,0
1488767256.179,529.306,-236.178,-21948.088,-188.300,0
1488767256.181,728.521,-321.085,-21118.068,-79.119,0
1488767256.181,642.414,-251.491,-22017.080,-195.711,0
1488767256.195,429.834,-209.262,-22887.447,-993.345,0
1488767256.195,627.680,-376.436,-22763.969,-741.566,0
1488767256.209,713.423,-284.784,-23212.096,-308.446,0
1488767256.209,424.116,-211.813,-24056.102,-743.845,0
1488767256.211,-524.184,-418.338,969.375,13.991,0
1488767256.224,-295.458,-353.972,1216.019,29.203,0
1488767256.224,-475.807,-241.661,1204.395,-510.113,0
1488767256.226,-634.094,-368.758,1462.278,-1283.831,0
1488767256.226,-381.619,-441.548,2393.837,-1090.764,0
1488767256.240,-417.945,-321.682,1493.441,-1192.998,0
1488767256.240,-650.959,-297.558,588.370,-2021.752,0
1488767256.254,-426.448,-437.235,775.577,-1719.290,0
1488767256.254,-372.247,-379.882,297.685,-1297.199,0
1488767256.256,-586.330,-234.671,-536.395,-1704.500,0
1488767256.256,-514.833,-417.309,36.548,-905.776,0
1488767256.270,-317.828,-365.592,232.207,41.427,0
1488767256.270,-478.816,-247.690,167.705,-534.305,0
1488767256.284,-568.824,-334.515,487.083,-1261.307,0
1488767256.284,-316.887,-388.692,1432.224,-1052.683,0
1488767256.286,-339.454,-271.900,505.425,-1168.414,0
1488767256.286,-566.024,-242.121,-384.944,-2003.350,0
1488767256.300,-328.206,-381.085,-167.972,-1658.582,0
1488767256.300,-255.228,-294.508,-652.326,-1256.911,0
1488767256.314,-518.808,-185.772,-1529.374,-1713.003,0
1488767256.314,-393.363,-320.229,-878.955,-850.420,0
1488767256.316,-214.945,-316.360,-722.390,60.450,0
1488767256.316,-396.405,-195.784,-803.669,-531.819,0
1488767256.330,-504.185,-289.158,-467.974,-1251.926,0
1488767256.330,-263.525,-366.241,460.679,-1050.695,0
1488767256.344,-281.427,-223.468,-478.253,-1176.393,0
1488767256.344,-524.925,-195.025,-1346.108,-1989.316,0
1488767256.346,-301.385,-363.496,-1130.923,-1659.668,0
1488767256.346,-227.767,-277.282,-1630.929,-1256.416,0
1488767256.360,-471.747,-148.568,-2493.402,-1700.125,0
1488767256.360,-373.371,-313.172,-1841.611,-833.558,0
1488767256.374,-189.987,-289.833,-1665.183,106.471,0
1488767256.374,-349.972,-151.103,-1746.204,-483.921,0
1488767256.376,-475.517,-263.412,-1399.499,-1195.119,0
1488767256.376,-232.429,-335.476,-492.190,-1011.761,0
1488767256.390,-209.180,-167.886,-1383.770,-1089.465,0
1488767256.390,-506.700,-194.428,-2304.900,-1964.059,0
1488767256.404,-286.351,-352.338,-2067.456,-1614.522,0
1488767256.404,-212.666,-263.244,-2605.481,-1248.515,0
1488767256.406,-475.016,-160.960,-3474.851,-1702.797,0
1488767256.406,-412.240,-348.246,-2832.970,-841.605,0
1488767256.420,-193.996,-299.259,-2660.282,93.817,0
1488767256.420,-369.367,-179.955,-2752.351,-516.389,0
1488767256.434,-488.910,-291.452,-2377.469,-1213.745,0
1488767256.434,-210.237,-334.491,-1442.504,-994.312,0
1488767256.436,-277.521,-219.947,-1445.219,-1158.733,0
1488767256.436,-478.668,-180.744,-2257.929,-1931.699,0
1488767256.450,-271.446,-335.561,-2104.879,-1623.421,0
1488767256.450,-197.929,-196.046,-2197.722,-1496.872,0
1488767256.479,-510.435,-137.697,-2237.332,-2181.405,0
1488767256.479,-393.557,-261.167,-1761.899,-1369.778,0
1488767256.479,-198.471,-252.432,-1390.080,-419.490,0
1488767256.479,-381.457,-196.717,-1863.962,-736.656,0
1488767256.482,-418.246,-235.339,-1071.838,-1055.635,0
1488767256.482,-181.538,-285.880,-507.519,-994.871,0
1488767256.494,-246.082,-225.101,-1293.370,-1118.479,0
1488767256.494,-460.901,-200.105,-1650.683,-1618.675,0
1488767256.496,-234.632,-289.620,-1052.959,-1491.764,0
1488767256.496,-190.780,-249.470,-1607.800,-1221.861,0
1488767256.510,-463.650,-211.579,-1978.300,-1474.024,0
1488767256.510,-268.429,-236.053,-1589.117,-553.195,0
1488767256.524,-174.945,-262.345,-805.415,76.890,0
1488767256.524,-341.023,-190.611,-1503.561,-415.460,0
1488767256.526,-396.945,-211.289,-935.884,-870.677,0
1488767256.526,-184.031,-276.906,-600.761,-15.090,0
1488767256.540,-241.958,-209.522,-1412.652,-191.038,0
1488767256.540,-470.691,-200.436,-1754.150,-707.447,0
1488767256.554,-250.805,-288.578,-1256.763,-632.980,0
1488767256.554,-183.732,-245.743,-1733.668,-336.961,0
1488767256.556,-456.150,-194.998,-2029.464,-538.299,0
1488767256.556,-344.748,-287.363,-1777.673,297.373,0
1488767256.570,-174.218,-270.180,-927.544,977.475,0
1488767256.570,-398.735,-236.231,-1627.649,451.537,0
1488767256.584,-428.890,-239.013,-1049.302,47.583,0
1488767256.584,-209.001,-298.429,-740.927,874.630,0
1488767256.586,-308.583,-256.477,-1523.587,695.369,0
1488767256.586,-499.078,-222.681,-1834.260,225.185,0
1488767256.600,-209.444,-258.229,-1255.138,370.172,0
1488767256.600,-236.341,-275.675,-1828.708,585.042,0
1488767256.614,-448.184,-194.005,-2081.488,411.376,0
1488767256.614,-307.566,-251.981,-1790.944,1289.622,0
1488767256.616,-224.332,-302.335,-1018.268,1889.571,0
1488767256.616,-371.101,-211.390,-1638.658,1426.919,0
1488767256.630,-437.473,-246.239,-1081.055,991.719,0
1488767256.630,-191.614,-278.877,-774.105,1845.143,0
1488767256.644,-240.203,-200.027,-1519.504,1700.876,0
1488767256.644,-460.969,-182.694,-1806.800,1240.244,0
1488767256.646,-248.687,-285.990,-1339.404,1284.358,0
1488767256.646,-182.219,-231.558,-1836.811,1566.005,0
1488767256.660,-481.045,-211.076,-2133.508,1344.266,0
1488767256.660,-326.091,-265.851,-1840.134,2228.859,0
1488767256.674,-192.074,-286.222,-1038.353,2854.527,0
1488767256.674,-412.444,-230.088,-1687.465,2352.378,0
1488767256.676,-435.291,-246.607,-1068.607,1964.764,0
1488767256.676,-196.133,-291.445,-785.069,2808.255,0
1488767256.690,-290.536,-248.845,-1582.198,2598.480,0
1488767256.690,-516.632,-236.109,-1835.094,2147.430,0
1488767256.704,-241.635,-292.660,-1336.197,2248.824,0
1488767256.704,-230.810,-283.713,-1881.336,2489.788,0
1488767256.706,-485.994,-219.085,-2109.025,2311.017,0
1488767256.706,-318.090,-262.352,-1818.407,3211.643,0
1488767256.720,-213.281,-300.507,-1067.280,3803.577,0
1488767256.720,-414.577,-240.296,-1679.400,3334.452,0
1488767256.734,-407.847,-229.471,-1044.509,2987.037,0
1488767256.734,-183.766,-274.918,-869.241,3753.004,0
1488767256.736,-310.365,-265.997,-1570.098,3574.450,0
1488767256.736,-469.860,-213.023,-1658.849,3273.242,0
1488767256.750,-267.620,-300.185,-1565.077,4100.679,0
1488767256.750,-235.223,-276.049,-2060.804,4321.933,0
1488767256.764,-417.943,-190.524,-2818.882,3452.563,0
1488767256.764,-348.117,-286.299,-1942.562,4149.933,0
1488767256.766,-235.032,-305.155,-1330.193,4623.212,0
1488767256.766,-374.770,-216.417,-1536.504,4369.594,0
1488767256.780,-382.541,-209.350,-937.157,4059.089,0
1488767256.780,-211.013,-280.397,-139.450,4581.667,0
1488767256.794,-312.297,-259.209,-660.298,4501.947,0
1488767256.794,-463.452,-212.069,-1488.409,4371.167,0
1488767256.796,-235.616,-270.670,-610.944,5113.778,0
1488767256.796,-248.096,-278.841,-1138.828,5272.479,0
1488767256.810,-470.930,-239.716,-1721.156,4480.652,0
1488767256.810,-302.700,-249.017,-925.090,5192.144,0
1488767256.824,-213.647,-282.658,-404.962,5568.024,0
1488767256.824,-413.085,-259.652,-499.297,5348.533,0
1488767256.826,-403.187,-224.648,85.621,5060.587,0
1488767256.826,-225.566,-288.698,748.808,5486.766,0
1488767256.840,-329.554,-287.892,355.292,5458.189,0
1488767256.840,-473.275,-228.639,-287.350,4483.422,0
1488767256.854,-217.086,-255.884,400.416,5146.459,0
1488767256.854,-243.827,-270.571,-117.021,5295.904,0
1488767256.856,-410.944,-199.974,-426.868,4697.104,0
1488767256.856,-326.667,-266.900,140.656,5271.286,0
1488767256.870,-205.751,-256.965,597.576,5604.476,0
1488767256.870,-374.611,-238.959,-248.112,5526.117,0
1488767256.884,-380.613,-216.409,327.651,5267.088,0
1488767256.884,-204.391,-263.895,775.450,5561.154,0
1488767256.886,-292.099,-261.926,437.924,5540.282,0
1488767256.886,-453.734,-224.065,-151.028,4594.401,0
1488767256.900,-261.643,-287.366,281.384,5089.888,0
1488767256.900,-224.029,-261.653,-160.186,5279.210,0
1488767256.914,-450.233,-232.723,-414.757,4677.640,0
1488767256.914,-345.103,-282.041,61.727,5240.725,0
1488767256.916,-217.245,-273.564,486.870,5542.271,0
1488767256.916,-397.396,-264.456,-280.932,5481.603,0
1488767256.930,-419.215,-239.045,258.199,5213.187,0
1488767256.930,-208.705,-267.842,673.371,5499.018,0
1488767256.944,-335.705,-292.189,363.030,5465.639,0
1488767256.944,-463.059,-228.044,-172.725,4565.352,0
1488767256.946,-279.574,-285.807,194.961,5020.698,0
1488767256.946,-257.668,-288.283,-277.624,5177.775,0
1488767256.960,-472.735,-251.701,-498.925,4597.421,0
1488767256.960,-381.434,-304.418,-113.463,5101.842,0
1488767256.974,-273.645,-321.936,297.427,5378.825,0
1488767256.974,-424.146,-286.794,-436.854,5350.607,0
1488767256.976,-451.032,-263.695,97.666,5080.104,0
1488767256.976,-219.859,-265.490,525.280,5386.632,0
1488767256.990,-310.399,-254.021,255.869,5385.458,0
1488767256.990,-457.526,-211.273,-305.460,4462.267,0
1488767257.004,-244.474,-249.367,87.194,4957.136,0
1488767257.004,-261.008,-269.574,-397.329,5094.220,0
1488767257.006,-440.347,-211.749,-581.945,4547.918,0
1488767257.006,-351.294,-261.333,-160.184,5077.598,0
1488767257.020,-236.762,-283.933,234.187,5352.490,0
1488767257.020,-403.509,-248.028,-466.857,5334.475,0
1488767257.034,-404.414,-225.224,129.329,5102.927,0
1488767257.034,-262.502,-297.782,456.251,5325.942,0
1488767257.036,-330.796,-278.849,221.191,4373.670,0
1488767257.036,-445.050,-213.709,-224.575,3536.726,0
1488767257.050,-243.011,-261.875,170.977,4014.294,0
1488767257.050,-285.725,-288.301,-338.472,4141.644,0
1488767257.064,-475.794,-241.210,-458.721,3637.034,0
1488767257.064,-332.943,-267.427,25.545,4211.510,0
1488767257.066,-226.197,-285.906,429.131,4506.108,0
1488767257.066,-373.769,-243.490,-296.062,4484.775,0
1488767257.080,-415.338,-245.599,333.092,4260.894,0
1488767257.080,-213.498,-285.302,717.571,4534.268,0
1488767257.094,-304.677,-260.591,399.627,4523.104,0
1488767257.094,-482.546,-240.464,-101.340,3615.778,0
1488767257.096,-239.223,-279.139,389.804,4184.286,0
1488767257.096,-212.989,-261.282,-112.681,4330.136,0
1488767257.110,-430.965,-218.926,-354.212,3743.997,0
1488767257.110,-299.813,-243.763,229.376,4371.333,0
1488767257.124,-222.346,-286.970,572.824,4625.809,0
1488767257.124,-351.638,-230.279,-273.841,4543.539,0
1488767257.126,-379.561,-220.568,359.517,4299.533,0
1488767257.126,-207.377,-268.394,771.229,4592.716,0
1488767257.140,-290.160,-258.433,376.546,4532.384,0
1488767257.140,-456.137,-228.358,-176.705,3581.792,0
1488767257.154,-228.985,-256.998,344.078,4156.799,0
1488767257.154,-234.602,-259.085,-215.400,4274.474,0
1488767257.156,-475.194,-240.160,-539.256,3614.826,0
1488767257.156,-272.792,-227.206,139.657,4304.058,0
1488767257.170,-192.364,-257.342,513.462,4578.120,0
1488767257.170,-393.241,-253.638,-377.468,4455.859,0
1488767257.184,-366.720,-210.429,313.963,4253.265,0
1488767257.184,-215.906,-274.239,688.052,4505.930,0
1488767257.186,-297.526,-248.993,337.765,4488.360,0
1488767257.186,-477.030,-237.035,-183.442,3554.317,0
1488767257.200,-230.782,-262.346,293.184,4107.199,0
1488767257.200,-238.531,-272.212,-242.119,4238.999,0
1488767257.214,-445.104,-226.943,-467.852,3648.554,0
1488767257.214,-352.974,-288.670,38.139,4223.753,0
1488767257.216,-218.132,-274.307,2400.069,1584.466,0
1488767257.229,-394.771,-259.472,1627.406,1520.353,0
1488767257.229,-395.003,-236.908,2280.133,1323.156,0
1488767257.231,-235.861,-285.822,2576.454,1534.470,0
1488767257.231,-340.230,-294.076,2254.142,1498.013,0
1488767257.245,-466.803,-238.073,1828.579,652.841,0
1488767257.245,-272.734,-289.313,2150.844,1103.732,0
1488767257.259,-256.490,-278.869,1651.040,1242.383,0
1488767257.259,-468.673,-243.226,1525.986,719.774,0
1488767257.261,-310.200,-244.004,2008.839,1317.886,0
1488767257.261,-202.516,-256.136,2354.115,1563.241,0
1488767257.275,-383.688,-238.501,1639.207,1530.333,0
1488767257.275,-390.685,-221.572,2261.809,1313.707,0
1488767257.289,-253.507,-298.536,2516.046,1485.916,0
1488767257.289,-335.164,-274.883,2239.637,509.013,0
1488767257.291,-469.651,-236.551,1820.892,-333.799,0
1488767257.291,-219.229,-246.536,2178.813,155.868,0
1488767257.305,-301.758,-311.872,1596.451,220.424,0
1488767257.305,-476.258,-244.971,1483.719,-287.316,0
1488767257.319,-327.019,-262.418,1982.818,299.439,0
1488767257.319,-241.762,-288.862,2321.647,534.796,0
1488767257.321,-417.365,-273.501,1552.489,482.273,0
1488767257.321,-385.155,-222.431,2276.834,333.089,0
1488767257.335,-184.351,-241.051,2594.432,568.267,0
1488767257.335,-299.914,-256.778,2239.269,527.767,0
1488767257.349,-466.560,-232.998,1776.314,-350.058,0
1488767257.349,-238.821,-258.732,2210.140,163.615,0
1488767257.351,-229.742,-251.662,1671.232,287.445,0
1488767257.351,-473.217,-248.847,1417.424,-321.108,0
1488767257.365,-355.135,-286.071,2019.146,294.444,0
1488767257.365,-221.589,-276.453,2398.998,590.571,0
1488767257.379,-401.059,-256.604,1503.337,472.604,0
1488767257.379,-412.934,-238.583,2226.650,284.300,0
1488767257.381,-231.677,-282.751,2644.627,579.398,0
1488767257.381,-311.027,-271.904,2194.811,502.936,0
1488767257.395,-473.099,-229.607,1689.079,-415.056,0
1488767257.395,-279.228,-287.295,2262.146,160.943,0
1488767257.409,-263.242,-291.248,1681.773,291.714,0
1488767257.409,-473.032,-236.850,1279.794,-393.226,0
1488767257.411,-317.327,-252.273,2098.983,338.913,0
1488767257.411,-204.387,-272.869,2494.521,659.249,0
1488767257.425,-414.944,-252.847,2276.447,382.354,0
1488767257.425,-426.369,-242.643,3053.574,153.757,0
1488767257.439,-223.250,-291.022,3822.694,678.074,0
1488767257.439,-298.504,-255.259,3180.276,541.388,0
1488767257.441,-486.770,-227.040,2431.249,416.262,0
1488767257.441,-255.373,-284.137,3387.880,1201.231,0
1488767257.455,-268.538,-297.122,2783.261,1343.911,0
1488767257.455,-456.666,-209.128,2105.012,521.589,0
1488767257.469,-336.711,-286.151,2133.280,1302.803,0
1488767257.469,-192.240,-275.221,2657.810,1745.284,0
1488767257.471,-386.472,-230.542,2332.379,1416.035,0
1488767257.471,-444.493,-269.490,3095.564,1156.654,0
1488767257.485,-214.719,-292.804,3880.043,1695.418,0
1488767257.485,-313.849,-266.455,3213.937,1540.953,0
1488767257.499,-485.805,-227.805,2462.389,1409.211,0
1488767257.499,-238.507,-270.346,3441.145,2221.695,0
1488767257.501,-266.223,-301.679,2797.097,2337.757,0
1488767257.501,-471.143,-222.260,2143.198,1523.951,0
1488767257.515,-306.848,-261.155,2175.872,2327.919,0
1488767257.515,-210.835,-281.411,2634.797,2699.222,0
1488767257.529,-386.390,-235.898,2407.916,2428.977,0
1488767257.529,-406.604,-235.432,3216.170,2233.298,0
1488767257.531,-220.104,-288.793,3807.914,2639.775,0
1488767257.531,-312.379,-273.880,3196.070,2511.799,0
1488767257.545,-464.574,-210.869,2546.988,2453.715,0
1488767257.545,-240.844,-280.711,3416.288,3205.949,0
1488767257.559,-213.571,-250.405,2804.770,3358.587,0
1488767257.559,-466.983,-232.784,2093.478,2471.703,0
1488767257.561,-321.327,-270.718,2143.673,3281.540,0
1488767257.561,-220.149,-288.887,2605.601,3659.997,0
1488767257.575,-398.288,-244.028,2306.735,3356.560,0
1488767257.575,-367.451,-208.935,3183.193,3189.828,0
1488767257.589,-220.964,-300.637,3913.108,3680.486,0
1488767257.589,-308.766,-259.586,3179.590,3496.090,0
1488767257.591,-459.581,-210.734,2484.687,3384.495,0
1488767257.591,-236.233,-280.031,2522.865,4224.123,0
1488767257.605,-235.487,-270.081,1795.365,4322.840,0
1488767257.605,-500.077,-236.917,983.960,3375.475,0
1488767257.619,-330.620,-274.189,1164.218,4252.000,0
1488767257.619,-231.133,-301.456,1613.381,4635.757,0
1488767257.621,-405.312,-237.106,1305.438,4315.988,0
1488767257.621,-420.387,-252.174,2233.242,4163.591,0
1488767257.635,-206.953,-289.001,2948.227,4671.258,0
1488767257.635,-319.255,-266.485,2153.913,4447.649,0
1488767257.649,-487.808,-237.293,1466.766,4333.418,0
1488767257.649,-255.514,-299.203,1587.357,5218.003,0
1488767257.651,-260.005,-283.505,823.270,5302.598,0
1488767257.651,-509.202,-251.837,-8.372,4335.782,0
1488767257.665,-341.541,-294.555,320.334,5287.869,0
1488767257.665,-212.381,-283.542,732.289,5699.660,0
1488767257.679,-388.800,-219.210,253.077,5281.685,0
1488767257.679,-416.404,-265.316,299.884,5143.675,0
1488767257.681,-229.800,-309.189,1027.883,5682.686,0
1488767257.681,-343.209,-274.316,79.834,5373.377,0
1488767257.695,-491.200,-233.676,-467.691,5305.312,0
1488767257.695,-247.854,-298.313,-203.641,5322.352,0
1488767257.709,-224.994,-251.873,-1181.599,5337.538,0
1488767257.709,-491.709,-187.283,-1491.113,5082.829,0
1488767257.711,-358.862,-328.498,-648.527,5201.752,0
1488767257.711,-234.112,-317.235,-17.563,5798.870,0
1488767257.725,-385.212,-188.543,-949.108,5224.975,0
1488767257.725,-417.251,-261.393,-838.873,5008.625,0
1488767257.739,-220.116,-330.895,-598.332,5839.285,0
1488767257.739,-280.683,-215.514,-750.661,5527.590,0
1488767257.741,-490.641,-209.992,-863.382,5102.768,0
1488767257.741,-251.151,-329.145,-64.238,5332.298,0
1488767257.755,-232.495,-272.308,-935.280,5455.021,0
1488767257.755,-487.952,-184.549,-1364.216,5178.643,0
1488767257.769,-331.551,-329.160,-528.627,5295.244,0
1488767257.769,-202.153,-295.117,43.575,5863.508,0
1488767257.771,-390.588,-179.526,23.511,5231.925,0
1488767257.771,-451.728,-280.403,102.406,4973.637,0
1488767257.785,-235.503,-349.509,349.245,5812.644,0
1488767257.785,-292.720,-219.381,193.198,5500.811,0
1488767257.799,-513.341,-229.800,100.306,5083.030,0
1488767257.799,-249.496,-333.238,918.216,5334.084,0
1488767257.801,-260.596,-298.519,18.008,5430.591,0
1488767257.801,-505.941,-204.795,-410.925,5154.287,0
1488767257.815,-334.270,-329.038,447.006,5286.898,0
1488767257.815,-210.687,-305.008,1006.755,5853.577,0
1488767257.829,-401.594,-191.358,962.714,5199.898,0
1488767257.829,-460.307,-301.086,1075.552,4961.929,0
1488767257.831,-226.793,-343.878,1314.391,5809.706,0
1488767257.831,-286.684,-219.319,1148.239,5491.257,0
1488767257.845,-500.434,-223.287,1068.314,5082.737,0
1488767257.845,-231.440,-315.221,1899.957,5343.997,0
1488767257.859,-233.097,-268.519,980.413,5434.688,0
1488767257.859,-461.986,-170.854,578.329,5166.649,0
1488767257.861,-332.232,-323.434,1426.278,5294.069,0
1488767257.861,-191.595,-288.113,1977.773,5856.070,0
1488767257.875,-391.556,-177.787,1918.754,5192.985,0
1488767257.875,-437.583,-290.130,2077.107,4976.516,0
1488767257.889,-225.873,-332.690,2305.721,5829.518,0
1488767257.889,-306.666,-226.535,2090.984,5471.206,0
1488767257.891,-489.166,-214.390,2064.176,5093.711,0
1488767257.891,-246.863,-336.946,2889.095,5349.650,0
1488767257.905,-240.242,-277.865,1954.251,5426.327,0
1488767257.905,-485.867,-186.150,1533.527,5147.181,0
1488767257.919,-354.456,-349.662,2411.456,5283.898,0
1488767257.919,-243.660,-335.101,2926.932,5821.294,0
1488767257.921,-398.193,-184.927,2886.601,5180.100,0
1488767257.921,-430.663,-279.872,3070.807,4984.323,0
1488767257.935,-200.462,-317.218,3291.905,5835.489,0
1488767257.935,-283.357,-212.492,3060.386,5470.407,0
1488767257.949,-508.911,-223.573,3033.926,5071.375,0
1488767257.949,-243.570,-328.960,3849.858,5328.200,0
1488767257.951,-247.703,-283.103,2909.075,5410.622,0
1488767257.951,-482.161,-171.955,2526.256,5154.117,0
1488767257.965,-341.617,-327.733,3392.994,5297.585,0
1488767257.965,-188.381,-289.229,3900.953,5829.434,0
1488767257.979,-399.075,-201.302,2929.764,5188.520,0
1488767257.979,-447.739,-298.966,3087.545,5004.521,0
1488767257.981,-222.386,-326.039,3198.211,5768.225,0
1488767257.981,-311.040,-238.953,3043.057,5426.417,0
1488767257.995,-500.739,-222.361,2165.591,5133.717,0
1488767257.995,-249.977,-333.537,2801.166,5309.756,0
1488767258.009,-237.588,-278.626,1899.746,5387.077,0
1488767258.009,-505.141,-201.111,1612.592,5169.418,0
1488767258.011,-361.845,-337.348,2380.497,5278.416,0
1488767258.011,-197.781,-294.442,2898.112,5805.134,0
1488767258.025,-400.233,-200.734,1927.507,5170.847,0
1488767258.025,-447.341,-291.112,2129.841,5011.378,0
1488767258.039,-191.675,-302.982,2271.824,5814.272,-1
1488767258.039,-290.925,-210.280,2062.828,5449.464,0
1488767258.041,-514.085,-231.732,1098.296,5092.449,0
1488767258.041,-253.864,-339.501,1900.136,5341.401,0
1488767258.055,-215.716,-265.651,972.671,5438.802,0
1488767258.055,-484.360,-185.323,560.912,5144.393,0
1488767258.069,-348.794,-341.872,1477.328,5321.251,0
1488767258.069,-217.215,-313.518,1939.948,5831.368,0
1488767258.071,-402.288,-182.578,1873.535,5162.150,0
1488767258.071,-435.274,-290.463,2160.125,5023.688,0
1488767258.085,-224.484,-339.123,2310.288,5834.821,0
1488767258.085,-306.829,-233.170,2045.611,5448.808,0
1488767258.099,-512.370,-239.778,1122.346,5096.737,0
1488767258.099,-268.601,-356.979,1919.934,5343.935,0
1488767258.101,-251.837,-287.576,1919.691,5414.042,0
1488767258.101,-490.346,-185.306,1537.091,5150.749,0
1488767258.115,-329.199,-330.860,2511.573,5357.111,0
1488767258.115,-201.427,-305.886,2968.340,5869.562,0
1488767258.129,-410.278,-195.999,2836.239,5152.125,0
1488767258.129,-459.753,-315.130,3140.904,5014.018,0
1488767258.131,-216.153,-336.425,3316.240,5849.274,0
1488767258.131,-313.020,-235.524,3020.549,5448.806,0
1488767258.145,-511.205,-236.691,2101.738,5104.795,0
1488767258.145,-255.622,-343.386,2922.105,5375.861,0
1488767258.159,-234.703,-268.650,2915.912,5429.919,0
1488767258.159,-489.016,-193.839,2498.393,5134.535,0
1488767258.161,-338.805,-332.227,2509.884,5354.846,0
1488767258.161,-202.944,-298.053,2965.267,5863.422,0
1488767258.175,-405.437,-195.795,2820.866,5149.027,0
1488767258.175,-462.448,-310.475,3147.982,5025.666,0
1488767258.189,-225.673,-341.842,3299.484,5840.794,0
1488767258.189,-301.312,-222.421,2986.850,5433.369,0
1488767258.191,-513.361,-234.168,2079.603,5081.493,0
1488767258.191,-273.478,-356.224,2914.410,5350.469,0
1488767258.205,-241.018,-280.305,2877.965,5398.181,0
1488767258.205,-500.956,-195.075,2450.218,5091.083,0
1488767258.219,-358.606,-354.529,2487.963,5325.759,0
1488767258.219,-204.730,-301.496,2940.189,5849.594,0
1488767258.221,-415.692,-199.224,-2127.880,-765.935,0
1488767258.234,-448.431,-296.873,-1760.100,-873.457,0
1488767258.234,-229.450,-338.779,-1617.907,-64.526,0
1488767258.236,-317.248,-233.585,-1953.712,-483.313,0
1488767258.236,-521.533,-243.540,-2828.079,-814.747,0
1488767258.250,-253.661,-341.743,-1986.218,-519.214,0
1488767258.250,-241.392,-273.375,-2050.694,-491.836,0
1488767258.264,-524.315,-206.138,-2486.272,-822.297,0
1488767258.264,-343.321,-337.992,-2391.270,-540.909,0
1488767258.266,-222.165,-317.211,-1992.591,-53.737,0
1488767258.266,-406.632,-190.404,-2167.416,-790.093,0
1488767258.280,-450.905,-301.299,-1753.759,-869.910,0
1488767258.280,-216.845,-332.786,-1609.146,-52.134,0
1488767258.294,-327.793,-237.678,-1982.482,-504.748,0
1488767258.294,-506.728,-223.106,-2803.801,-794.280,0
1488767258.296,-248.438,-339.723,-1954.045,-505.584,0
1488767258.296,-254.766,-287.710,-2062.405,-508.550,0
1488767258.310,-514.300,-198.647,-2486.023,-824.141,0
1488767258.310,-332.774,-330.957,-2373.428,-532.595,0
1488767258.324,-199.505,-299.368,-1967.516,-32.483,0
1488767258.324,-432.231,-211.493,-2190.564,-812.046,0
1488767258.326,-439.203,-288.685,-1713.437,-849.752,0
1488767258.326,-195.748,-321.072,-1585.504,-24.268,0
1488767258.340,-324.850,-232.618,-1991.867,-498.450,0
1488767258.340,-499.185,-221.019,-2799.278,-797.055,0
1488767258.354,-252.481,-349.204,-1958.569,-513.599,0
1488767258.354,-214.104,-243.939,-2046.677,-476.789,0
1488767258.356,-469.277,-156.412,-2464.484,-798.143,0
1488767258.356,-281.719,-272.498,-2344.311,-504.638,0
1488767258.370,-136.231,-229.372,-1951.755,-19.384,0
1488767258.370,-318.219,-100.762,-2150.411,-772.648,0
1488767258.384,-323.466,-183.680,-1667.823,-819.068,0
1488767258.384,-107.062,-214.137,-1589.770,-29.757,0
1488767258.386,-164.518,-76.025,-1962.825,-473.253,0
1488767258.386,-336.157,-53.800,-2738.958,-754.886,0
1488767258.400,-95.564,-180.426,-1899.263,-457.296,0
1488767258.400,-96.772,-120.877,-2013.667,-456.374,0
1488767258.414,-355.939,-37.147,-2432.917,-768.577,0
1488767258.414,-180.495,-176.764,-2281.356,-458.811,0
1488767258.416,-75.937,-163.351,-1934.175,-6.595,0
1488767258.416,-274.884,-49.802,-2156.004,-776.229,0
1488767258.430,-304.609,-149.314,-1613.900,-783.395,0
1488767258.430,-83.209,-202.495,-1519.005,33.831,0
1488767258.444,-208.469,-119.752,-1957.920,-463.927,0
1488767258.444,-422.710,-143.141,-2743.433,-761.934,0
1488767258.446,-196.844,-283.612,-1899.497,-460.974,0
1488767258.446,-196.859,-225.207,-2042.294,-473.761,0
1488767258.460,-468.738,-154.708,-2465.164,-799.170,0
1488767258.460,-324.055,-318.475,-2315.174,-492.679,0
1488767258.474,-207.114,-305.383,-1971.819,-44.297,0
1488767258.474,-402.980,-182.574,-2195.981,-798.743,0
1488767258.476,-414.379,-280.160,-1631.700,-802.195,0
1488767258.476,-248.011,-367.617,-1592.373,-30.162,0
1488767258.490,-352.063,-267.177,-2041.026,-528.586,0
1488767258.490,-536.758,-270.127,-2776.960,-794.235,0
1488767258.504,-270.931,-374.205,-1913.894,-460.529,0
1488767258.504,-267.216,-304.570,-2073.464,-488.784,0
1488767258.506,-540.932,-233.716,-2489.820,-833.065,0
1488767258.506,-350.195,-363.041,-2281.879,-474.646,0
1488767258.520,-252.417,-351.678,-1994.115,-41.657,0
1488767258.520,-469.159,-242.766,-2252.287,-844.924,0
1488767258.534,-467.729,-326.551,-1636.227,-813.492,0
1488767258.534,-245.248,-369.179,-1579.457,-18.761,0
1488767258.536,-352.863,-263.053,-2053.916,-528.711,0
1488767258.536,-553.120,-280.167,-2791.667,-816.796,0
1488767258.550,-293.016,-388.796,-1920.235,-473.060,0
1488767258.550,-290.777,-320.220,-2098.781,-522.389,0
1488767258.564,-536.911,-232.394,-2496.520,-830.953,0
1488767258.564,-361.418,-367.838,-2294.324,-480.037,0
1488767258.566,-230.901,-331.391,-1980.974,-33.775,0
1488767258.566,-458.190,-232.143,-2262.028,-850.917,0
1488767258.580,-479.395,-334.216,-1634.669,-821.187,0
1488767258.580,-255.643,-381.773,-1610.096,-32.006,0
1488767258.594,-362.136,-280.521,-2085.942,-558.064,0
1488767258.594,-535.948,-269.280,-2757.550,-791.385,0
1488767258.596,-292.445,-384.922,-1919.878,-476.776,0
1488767258.596,-279.357,-314.961,-2109.920,-522.859,0
1488767258.610,-535.312,-224.588,-2502.404,-834.901,0
1488767258.610,-353.600,-364.517,-2272.324,-468.120,0
1488767258.624,-218.304,-323.234,-1983.598,-42.921,0
1488767258.624,-443.386,-219.222,-2271.881,-862.165,0
1488767258.626,-463.910,-323.314,-1614.367,-813.533,0
1488767258.626,-208.881,-340.028,-1566.580,-4.871,0
1488767258.640,-344.703,-257.509,-2087.459,-560.463,0
1488767258.640,-531.178,-260.153,-2745.385,-793.171,0
1488767258.654,-256.537,-358.759,-1884.249,-442.744,0
1488767258.654,-258.590,-285.994,-2103.707,-511.181,0
1488767258.656,-524.153,-207.738,-2495.181,-840.228,0
1488767258.656,-347.549,-353.879,-2244.983,-455.813,0
1488767258.670,-204.597,-303.081,-1967.451,-24.975,0
1488767258.670,-425.520,-206.235,-2273.749,-856.186,0
1488767258.684,-453.072,-307.171,-1594.323,-798.650,0
1488767258.684,-236.971,-349.911,-1579.526,-20.259,0
1488767258.686,-310.823,-224.588,-2070.904,-532.745,0
1488767258.686,-493.128,-235.804,-2719.638,-763.370,0
1488767258.700,-270.782,-358.739,-1887.793,-448.352,0
1488767258.700,-277.282,-298.225,-2131.814,-531.516,0
1488767258.714,-506.710,-190.634,-2506.885,-845.474,0
1488767258.714,-324.470,-332.395,-2231.611,-445.770,0
1488767258.716,-230.552,-317.740,-1991.695,-41.676,0
1488767258.716,-455.585,-217.916,-2327.037,-895.457,0
1488767258.730,-437.853,-297.662,-1571.953,-777.241,0
1488767258.730,-233.764,-346.244,-612.652,-21.622,0
1488767258.744,-325.325,-232.220,-1128.118,-555.078,0
1488767258.744,-515.106,-238.035,-1761.444,-785.340,0
1488767258.746,-282.325,-365.873,-931.850,-470.939,0
1488767258.746,-264.510,-279.629,-1157.763,-531.645,0
1488767258.760,-503.669,-186.425,-1542.677,-850.124,0
1488767258.760,-304.540,-316.109,-1228.950,-421.937,0
1488767258.774,-219.220,-313.209,-1020.849,-46.906,0
1488767258.774,-441.456,-206.859,-1354.620,-897.598,0
1488767258.776,-440.287,-290.555,-585.837,-779.120,0
1488767258.776,-213.846,-322.583,392.093,-10.640,0
1488767258.790,-327.363,-232.218,-159.400,-573.274,0
1488767258.790,-512.417,-237.607,-768.525,-783.401,0
1488767258.804,-261.718,-360.051,87.787,-440.730,0
1488767258.804,-241.386,-271.773,-158.482,-511.388,0
1488767258.806,-522.081,-206.816,-568.218,-868.044,0
1488767258.806,-321.085,-325.977,-252.247,-425.911,0
1488767258.820,-196.986,-296.262,-24.156,-25.044,0
1488767258.820,-414.271,-186.273,-346.958,-872.304,0
1488767258.834,-437.667,-284.296,409.525,-769.503,0
1488767258.834,-232.884,-337.975,1350.747,-19.580,0
1488767258.836,-325.267,-233.106,799.493,-578.890,0
1488767258.836,-500.167,-233.611,226.952,-770.029,0
1488767258.850,-232.938,-322.811,1078.559,-422.594,0
1488767258.850,-245.586,-274.393,794.259,-528.829,0
1488767258.864,-499.039,-181.234,418.792,-866.108,0
1488767258.864,-342.825,-337.958,707.784,-455.436,0
1488767258.866,-197.768,-291.708,941.570,-35.323,0
1488767258.866,-392.714,-168.671,630.968,-874.486,0
1488767258.880,-429.877,-289.642,1398.771,-761.853,0
1488767258.880,-218.941,-326.286,2339.272,-9.178,0
1488767258.894,-320.659,-228.384,1777.883,-578.076,0
1488767258.894,-504.670,-225.361,1228.469,-768.796,0
1488767258.896,-233.660,-323.219,2075.981,-406.155,0
1488767258.896,-244.330,-275.608,1774.541,-530.413,0
1488767258.910,-503.149,-189.503,1424.782,-840.268,0
1488767258.910,-325.809,-325.650,1735.349,-404.436,0
1488767258.924,-198.639,-289.498,1935.439,-27.053,0
1488767258.924,-420.625,-194.099,1586.637,-896.908,0
1488767258.926,-423.478,-278.654,2408.269,-743.208,0
1488767258.926,-201.943,-308.652,3345.939,19.958,0
1488767258.940,-330.962,-223.814,2737.663,-592.331,0
1488767258.940,-505.118,-222.926,2217.521,-759.258,0
1488767258.954,-229.265,-316.083,3066.488,-403.393,0
1488767258.954,-243.780,-264.557,2760.444,-524.315,0
1488767258.955,-500.236,-190.834,2398.609,-845.920,0
1488767258.955,-299.024,-308.764,2752.162,-381.603,0
1488767258.970,-208.015,-302.543,2893.151,-47.635,0
1488767258.970,-422.973,-187.954,2549.031,-905.471,0
1488767258.984,-405.214,-263.418,3424.286,-712.973,0
1488767258.984,-200.333,-321.278,4307.652,4.974,0
1488767258.986,-318.196,-232.910,3704.380,-597.053,0
1488767258.986,-494.390,-223.921,3203.910,-760.094,0
1488767259.000,-217.715,-309.651,4037.697,-404.887,0
1488767259.000,-241.111,-273.009,3717.161,-537.874,0
1488767259.014,-495.896,-190.913,3374.998,-842.841,0
1488767259.014,-303.259,-310.840,3733.622,-381.055,0
1488767259.016,-189.774,-290.250,3891.280,-31.802,0
1488767259.016,-426.681,-197.285,3510.397,-921.554,0
1488767259.030,-427.863,-288.812,4400.454,-737.209,0
1488767259.030,-212.653,-325.470,5294.628,-2.081,0
1488767259.044,-312.605,-221.331,4687.097,-598.775,0
1488767259.044,-512.529,-245.360,4191.534,-761.030,0
1488767259.046,-252.739,-345.032,5011.146,-422.242,0
1488767259.046,-231.479,-251.129,4693.157,-531.874,0
1488767259.060,-507.087,-192.126,4336.708,-873.555,0
1488767259.060,-298.908,-315.707,4725.539,-371.475,0
1488767259.074,-210.715,-305.226,4832.697,-57.516,0
1488767259.074,-416.058,-187.605,4477.369,-926.942,0
1488767259.076,-421.485,-279.389,5396.866,-721.597,0
1488767259.076,-190.959,-309.686,6277.723,13.576,0
1488767259.090,-338.723,-238.708,5609.384,-641.307,0
1488767259.090,-490.177,-216.121,5193.369,-749.831,0
1488767259.104,-238.327,-329.250,5995.366,-414.753,0
1488767259.104,-246.944,-265.449,5638.000,-563.657,0
1488767259.106,-491.440,-185.918,5314.218,-863.762,0
1488767259.106,-319.328,-322.548,5698.401,-384.118,0
1488767259.120,-204.492,-296.355,5819.112,-45.475,0
1488767259.120,-400.526,-173.255,5459.543,-926.510,0
1488767259.149,-434.829,-295.489,6392.044,-734.404,0
1488767259.149,-201.517,-318.045,7263.005,9.729,0
1488767259.149,-319.114,-221.669,6602.438,-617.538,0
1488767259.149,-494.220,-228.813,6190.806,-737.978,0
1488767259.152,-229.235,-320.519,7012.535,-379.749,0
1488767259.152,-234.153,-262.885,6635.575,-539.118,0
1488767259.164,-500.629,-190.288,6311.210,-868.667,0
1488767259.164,-303.519,-313.140,6718.404,-364.780,0
1488767259.166,-201.160,-296.140,6806.152,-42.029,0
1488767259.166,-414.465,-182.154,6419.312,-925.779,0
1488767259.180,-416.896,-274.421,6437.561,-682.736,0
1488767259.180,-185.211,-292.642,7282.147,32.732,0
1488767259.194,-318.318,-222.636,6600.009,-623.348,0
1488767259.194,-491.602,-214.111,6216.340,-733.376,0
1488767259.196,-248.574,-339.114,7013.673,-390.608,0
1488767259.196,-234.985,-258.726,6629.713,-546.555,0
1488767259.210,-505.691,-192.652,6309.103,-872.117,0
1488767259.210,-300.836,-309.598,6749.365,-337.451,0
1488767259.224,-197.852,-290.321,6814.550,-29.454,0
1488767259.224,-401.471,-173.159,6427.896,-922.594,0
1488767259.226,-414.731,-291.985,-399.887,-673.358,0
1488767259.239,-193.600,-321.874,416.311,40.673,0
1488767259.239,-328.195,-235.907,-278.402,-620.055,0
1488767259.241,-495.686,-227.371,-627.836,-714.431,0
1488767259.241,-230.017,-320.285,158.256,-374.356,0
1488767259.255,-251.342,-269.252,-270.793,-574.598,0
1488767259.255,-487.311,-173.786,-537.138,-857.600,0
1488767259.269,-286.495,-302.487,-100.727,-323.084,0
1488767259.269,-185.318,-278.763,-46.537,-28.419,0
1488767259.271,-428.437,-188.420,-478.627,-962.639,0
1488767259.271,-429.137,-292.217,-402.350,-678.266,0
1488767259.285,-211.817,-334.257,391.106,-0.105,0
1488767259.285,-310.917,-215.491,-299.272,-634.156,0
1488767259.299,-510.796,-238.450,-652.491,-739.292,0
1488767259.299,-254.012,-352.353,135.650,-394.139,0
1488767259.301,-243.531,-269.284,-271.547,-568.287,0
1488767259.301,-513.047,-194.080,-561.172,-879.024,0
1488767259.315,-325.452,-327.359,-122.330,-344.950,0
1488767259.315,-227.423,-310.172,-99.167,-64.265,0
1488767259.329,-427.628,-192.910,-490.611,-964.993,0
1488767259.329,-403.432,-272.562,-370.828,-652.369,0
1488767259.331,-216.985,-334.760,384.750,6.061,0
1488767259.331,-333.154,-238.093,-340.854,-669.990,0
