timestamps,,,,,Marker
1488767829.135,-1.565,410.478,-866.703,-8106.816,0
1488767829.135,132.247,377.107,-321.790,-7938.691,0
1488767829.149,185.093,360.928,430.982,-7366.264,0
1488767829.149,35.415,393.381,-266.647,-7744.730,0
1488767829.151,64.670,391.829,210.083,-7535.997,0
1488767829.151,207.772,369.435,743.391,-7325.125,0
1488767829.165,102.879,384.811,159.989,-8137.644,0
1488767829.165,14.890,413.981,-228.231,-8987.356,0
1488767829.179,164.956,347.063,517.466,-8529.942,0
1488767829.179,158.418,365.895,-409.506,-8608.499,0
1488767829.181,7.427,415.488,-848.376,-9074.898,0
1488767829.181,134.608,371.623,-313.718,-8924.561,0
1488767829.195,185.398,355.743,425.887,-8352.570,0
1488767829.195,50.582,403.735,-264.678,-8720.229,0
1488767829.209,74.845,400.134,235.165,-8502.860,0
1488767829.209,188.442,357.634,727.566,-8318.003,0
1488767829.211,107.081,386.313,149.366,-9118.532,0
1488767829.211,10.857,406.514,-230.974,-9962.975,0
1488767829.225,178.126,364.171,525.886,-9482.325,0
1488767829.225,159.550,364.573,-430.391,-9596.669,0
1488767829.239,3.143,413.343,-870.177,-10062.979,0
1488767829.239,129.273,369.998,-324.517,-9905.538,0
1488767829.241,183.766,359.395,395.233,-9339.009,0
1488767829.241,38.815,400.596,-301.844,-9717.472,0
1488767829.255,65.837,390.820,226.094,-9492.556,0
1488767829.255,187.300,357.441,709.018,-9309.306,0
1488767829.269,105.942,385.683,123.091,-10107.329,0
1488767829.269,5.092,397.978,-222.158,-10944.700,0
1488767829.271,173.236,363.806,528.300,-10455.531,0
1488767829.271,158.426,369.568,-444.620,-10569.325,0
1488767829.285,-1.219,413.955,-871.933,-11045.829,0
1488767829.285,138.700,378.190,-305.314,-10868.537,0
1488767829.299,191.285,364.225,400.590,-10311.560,0
1488767829.299,31.621,399.087,-320.968,-10707.425,0
1488767829.301,67.081,386.008,244.058,-10462.998,0
1488767829.301,181.613,343.074,702.856,-10293.410,0
1488767829.315,96.186,379.069,99.016,-11099.471,0
1488767829.315,20.461,410.867,-203.026,-11910.270,0
1488767829.329,171.218,355.891,518.963,-11443.761,0
1488767829.329,144.710,354.219,506.749,-11574.047,0
1488767829.331,-7.358,402.888,102.915,-12038.606,0
1488767829.331,133.683,371.851,680.832,-11850.940,0
1488767829.345,196.089,366.963,1385.693,-11291.703,0
1488767829.345,37.741,396.540,655.122,-11694.296,0
1488767829.359,61.600,383.454,1229.965,-11443.175,0
1488767829.359,182.868,342.382,1677.812,-11272.395,0
1488767829.361,102.408,380.329,1060.953,-12087.535,0
1488767829.361,10.376,401.970,779.208,-12897.530,0
1488767829.375,157.068,349.941,1494.402,-12432.651,0
1488767829.375,151.066,364.823,1484.690,-12554.714,0
1488767829.389,-2.782,406.103,1087.553,-13016.600,0
1488767829.389,117.536,359.975,1663.436,-12834.416,0
1488767829.391,188.906,366.506,2350.993,-12279.974,0
1488767829.391,34.796,401.682,1619.977,-12677.076,0
1488767829.405,70.735,395.040,2236.763,-12410.191,0
1488767829.405,186.969,356.901,2664.190,-12249.636,0
1488767829.419,93.445,374.603,2020.763,-13085.649,0
1488767829.419,17.854,406.626,1778.534,-13869.005,0
1488767829.421,161.999,351.336,2491.061,-13403.464,0
1488767829.421,171.041,375.935,2467.272,-13520.250,0
1488767829.435,4.043,410.950,2079.354,-13986.705,0
1488767829.435,125.681,365.338,2664.224,-13802.338,0
1488767829.449,188.472,361.822,3326.888,-13258.483,0
1488767829.449,38.588,396.710,2596.336,-13656.970,0
1488767829.451,70.765,387.925,3245.364,-13376.143,0
1488767829.451,178.756,344.112,3645.019,-13227.135,0
1488767829.465,89.859,374.725,2998.420,-14054.502,0
1488767829.465,14.604,409.904,2777.796,-14841.313,0
1488767829.479,169.169,351.031,3481.781,-14376.349,0
1488767829.479,152.092,368.640,3424.396,-14515.630,0
1488767829.481,-3.596,413.809,3052.878,-14976.149,0
1488767829.481,119.172,369.420,3651.216,-14789.800,0
1488767829.495,180.804,361.817,4290.190,-14247.562,0
1488767829.495,35.408,400.755,3557.245,-14650.596,0
1488767829.509,72.404,390.859,4228.596,-14358.758,0
1488767829.509,190.961,353.310,4623.505,-14203.774,0
1488767829.511,98.470,384.881,3957.048,-15047.129,0
1488767829.511,17.381,409.693,3753.021,-15827.377,0
1488767829.525,170.996,358.370,4448.356,-15360.486,0
1488767829.525,153.011,364.532,4375.466,-15516.100,0
1488767829.539,-9.765,403.339,4017.954,-15969.069,0
1488767829.539,117.293,363.546,4630.974,-15763.989,0
1488767829.541,189.583,365.093,5262.835,-15228.128,0
1488767829.541,27.327,393.649,4516.067,-15640.298,0
1488767829.555,62.249,381.599,5218.359,-15341.183,0
1488767829.555,191.513,352.843,5600.118,-15183.952,0
1488767829.569,93.026,380.871,4916.599,-16035.471,0
1488767829.569,10.726,405.347,4749.845,-16803.055,0
1488767829.571,176.245,361.703,5450.562,-16323.864,0
1488767829.571,151.038,360.308,5354.517,-16485.514,0
1488767829.585,0.922,408.169,5016.318,-16936.930,0
1488767829.585,127.684,363.212,5632.667,-16732.277,0
1488767829.599,180.280,355.021,6242.003,-16211.959,0
1488767829.599,22.441,390.795,5485.189,-16628.854,0
1488767829.601,69.813,385.817,6220.983,-16306.513,0
1488767829.601,195.849,358.243,6602.720,-16148.443,0
1488767829.614,100.497,382.880,5899.357,-17009.215,0
1488767829.614,28.141,422.035,5775.892,-17749.203,0
1488767829.616,167.164,355.577,2528.758,1337.500,0
1488767829.630,160.818,373.448,2428.087,1181.599,0
1488767829.630,32.707,442.395,2115.106,749.136,0
1488767829.644,112.881,354.264,2699.527,917.684,0
1488767829.644,161.207,343.332,3276.913,1425.863,0
1488767829.646,1.034,371.888,2511.505,998.789,0
1488767829.646,53.451,374.321,3275.453,1333.770,0
1488767829.660,185.295,353.340,3632.555,1484.979,0
1488767829.660,91.966,380.568,2917.673,619.660,0
1488767829.674,16.166,401.446,2803.405,-129.816,0
1488767829.674,171.658,357.540,3484.663,338.126,0
1488767829.676,131.289,348.142,3353.759,150.380,0
1488767829.676,-4.604,409.175,3059.952,-274.080,0
1488767829.690,140.869,374.603,3713.790,-40.507,0
1488767829.690,184.097,362.340,4278.404,457.609,0
1488767829.704,44.056,407.999,3528.689,45.909,0
1488767829.704,94.236,406.383,4318.165,386.212,0
1488767829.706,205.227,375.013,4640.228,511.751,0
1488767829.706,102.219,387.708,3911.303,-362.009,0
1488767829.720,35.204,419.783,3831.389,-1098.590,0
1488767829.720,207.514,393.095,4537.835,-607.827,0
1488767829.734,188.141,401.669,4374.544,-801.446,0
1488767829.734,53.045,455.548,4074.451,-1241.561,0
1488767829.736,194.699,431.549,4719.806,-1007.404,0
1488767829.736,257.019,434.075,5287.655,-498.416,0
1488767829.750,113.650,473.630,4522.988,-929.930,0
1488767829.750,153.489,473.249,5330.113,-579.641,0
1488767829.764,289.564,456.520,5640.201,-452.636,0
1488767829.764,202.061,485.357,4907.756,-1320.203,0
1488767829.766,128.561,513.737,4838.475,-2051.062,0
1488767829.766,277.512,453.805,5501.045,-1586.931,0
1488767829.780,261.976,476.676,5338.860,-1770.732,0
1488767829.780,102.761,515.708,5054.475,-2210.937,0
1488767829.794,250.224,488.302,5730.112,-1963.081,0
1488767829.794,275.343,457.945,6243.310,-1491.350,0
1488767829.796,123.260,491.292,5466.604,-1922.763,0
1488767829.796,160.425,484.878,6302.959,-1565.821,0
1488767829.810,267.321,444.506,6606.469,-1433.487,0
1488767829.810,170.218,458.121,5849.764,-2319.050,0
1488767829.824,112.223,493.379,5835.912,-3020.005,0
1488767829.824,208.056,402.200,6440.457,-2606.198,0
1488767829.826,174.173,398.984,6266.443,-2804.547,0
1488767829.826,56.486,470.141,6021.929,-3202.431,0
1488767829.840,161.354,403.990,6675.411,-2982.534,0
1488767829.840,211.497,395.253,7192.670,-2499.760,0
1488767829.854,57.099,430.133,6413.960,-2924.340,0
1488767829.854,97.892,412.219,7278.054,-2558.112,0
1488767829.856,216.909,383.886,7561.211,-2434.308,0
1488767829.856,100.736,406.267,6782.908,-3332.535,0
1488767829.870,29.341,429.217,5805.126,-4029.099,0
1488767829.870,183.135,378.725,6441.996,-3577.583,0
1488767829.884,189.450,417.259,6272.317,-3758.960,0
1488767829.884,24.674,438.084,6006.328,-4186.061,0
1488767829.886,155.419,399.395,6674.635,-3962.510,0
1488767829.886,193.976,388.284,7168.778,-3478.307,0
1488767829.900,51.152,430.902,6381.013,-3912.812,0
1488767829.900,93.965,418.149,7245.564,-3567.322,0
1488767829.914,195.625,372.458,7517.109,-3471.392,0
1488767829.914,108.205,412.724,6741.139,-4353.312,0
1488767829.916,17.576,412.679,6730.088,-5072.637,0
1488767829.916,164.219,358.196,7385.851,-4591.434,0
1488767829.930,149.173,379.706,7187.378,-4775.942,0
1488767829.930,-4.959,417.354,6965.188,-5180.595,0
1488767829.944,114.581,360.564,7654.812,-4932.010,0
1488767829.944,168.759,359.042,8161.043,-4441.901,0
1488767829.946,-6.878,372.279,7392.871,-4873.995,0
1488767829.946,56.052,374.199,8305.562,-4475.884,0
1488767829.960,137.995,311.840,8536.921,-4384.658,0
1488767829.960,41.232,337.461,7751.340,-5283.166,0
1488767829.974,-27.152,366.439,6829.164,-5965.525,0
1488767829.974,97.815,292.060,7442.946,-5523.815,0
1488767829.976,70.529,295.117,7213.171,-5743.703,0
1488767829.976,-69.594,343.270,6990.460,-6165.260,0
1488767829.990,71.589,310.692,7696.121,-5897.481,0
1488767829.990,107.307,286.929,8155.880,-5441.230,0
1488767830.004,-37.461,329.820,7379.664,-5876.708,0
1488767830.004,-1.769,309.325,8303.223,-5489.657,0
1488767830.006,119.477,276.115,8539.160,-5381.545,0
1488767830.006,42.607,323.756,7742.273,-6274.087,0
1488767830.020,-28.455,348.811,6827.647,-6964.376,0
1488767830.020,116.431,300.278,7461.405,-6505.252,0
1488767830.034,98.363,312.902,7221.400,-6719.770,0
1488767830.034,-52.811,362.451,7000.354,-7142.143,0
1488767830.036,89.479,319.042,7702.630,-6883.111,0
1488767830.036,166.568,335.802,8196.213,-6383.736,0
1488767830.050,6.025,371.232,7388.899,-6835.134,0
1488767830.050,37.883,356.901,8326.909,-6445.711,0
1488767830.064,140.011,315.642,8537.531,-6356.360,0
1488767830.064,53.376,348.921,7719.611,-7266.854,0
1488767830.066,-16.250,368.778,6830.061,-7943.296,0
1488767830.066,150.634,328.896,7469.429,-7468.148,0
1488767830.080,149.819,357.658,7233.508,-7671.703,0
1488767830.080,-27.112,380.537,6987.352,-8123.131,0
1488767830.094,105.495,335.804,7714.401,-7858.098,0
1488767830.094,152.234,334.457,8159.504,-7395.205,0
1488767830.096,17.598,384.757,7368.081,-7829.658,0
1488767830.096,70.561,371.264,7380.608,-7409.773,0
1488767830.110,151.703,324.560,7555.334,-7343.878,0
1488767830.110,68.977,359.833,6733.992,-8243.968,0
1488767830.124,-1.012,387.166,5863.527,-8915.755,0
1488767830.124,138.339,318.935,6482.561,-8461.156,0
1488767830.126,140.315,363.711,6217.278,-8676.271,0
1488767830.126,-3.162,404.867,6030.280,-9085.249,0
1488767830.140,105.409,333.786,6749.449,-8828.701,0
1488767830.140,160.963,340.273,7167.393,-8380.651,0
1488767830.154,8.622,386.829,6349.424,-8833.217,0
1488767830.154,55.152,364.857,6387.599,-8399.951,0
1488767830.156,162.213,329.021,6550.320,-8325.380,0
1488767830.156,74.740,370.046,5710.761,-9238.312,0
1488767830.170,5.866,385.730,4886.761,-9905.383,0
1488767830.170,141.518,324.433,5479.974,-9457.692,0
1488767830.184,125.459,346.223,5192.548,-9683.275,0
1488767830.184,-24.941,390.621,5008.896,-10095.992,0
1488767830.186,124.159,349.755,5759.866,-9813.822,0
1488767830.186,160.718,335.155,6167.031,-9373.312,0
1488767830.200,2.599,375.316,5341.243,-9839.655,0
1488767830.200,51.601,363.457,5391.034,-9404.950,0
1488767830.214,196.737,362.230,5585.166,-9299.555,0
1488767830.214,64.644,364.880,4682.601,-10263.727,0
1488767830.216,9.937,394.329,3901.235,-10887.336,0
1488767830.216,150.252,334.730,4494.475,-10436.890,0
1488767830.230,132.039,354.273,4183.966,-10681.973,0
1488767830.230,-19.681,392.332,4017.765,-11095.748,0
1488767830.244,123.600,349.002,4772.161,-10801.120,0
1488767830.244,149.620,328.025,5147.645,-10382.388,0
1488767830.246,13.982,391.392,4351.846,-10816.272,0
1488767830.246,75.999,379.787,4438.251,-10356.872,0
1488767830.260,170.444,337.705,4581.409,-10292.848,0
1488767830.260,71.348,369.915,3703.621,-11227.598,0
1488767830.274,2.631,382.412,2931.320,-11860.628,0
1488767830.274,154.637,335.892,3525.734,-11403.435,0
1488767830.276,149.510,361.617,3210.749,-11642.040,0
1488767830.276,-4.697,404.493,3068.715,-12044.248,0
1488767830.290,122.831,352.759,3805.387,-11768.425,0
1488767830.290,165.494,343.663,4173.735,-11345.287,0
1488767830.304,24.537,397.583,3382.792,-11786.262,0
1488767830.304,64.317,372.406,3470.939,-11338.082,0
1488767830.306,179.074,341.335,3608.420,-11277.815,0
1488767830.306,92.450,390.431,2738.699,-12194.992,0
1488767830.320,-2.700,379.095,1967.864,-12849.740,0
1488767830.320,164.816,343.199,2557.379,-12380.602,0
1488767830.334,137.215,347.532,2209.860,-12650.121,0
1488767830.334,-15.751,395.311,2105.532,-13032.634,0
1488767830.336,119.658,352.729,2851.913,-12742.046,0
1488767830.336,166.330,353.830,3200.301,-12322.297,0
1488767830.350,22.509,398.954,2401.193,-12772.727,0
1488767830.350,61.566,368.485,2512.674,-12308.794,0
1488767830.364,175.841,336.770,2616.357,-12258.008,0
1488767830.364,95.440,394.371,1732.458,-13187.754,0
1488767830.366,20.295,408.423,1013.941,-13806.950,0
1488767830.366,164.593,344.520,1580.833,-13365.050,0
1488767830.380,140.153,360.573,1237.320,-13622.231,0
1488767830.380,-4.058,407.918,1149.488,-13995.896,0
1488767830.394,115.677,342.930,1895.391,-13714.313,0
1488767830.394,161.975,349.387,2242.313,-13295.039,0
1488767830.396,15.479,393.980,1433.302,-13752.611,0
1488767830.396,68.057,380.774,1580.050,-13272.433,0
1488767830.410,161.840,329.358,1657.516,-13230.615,0
1488767830.410,95.835,388.398,780.872,-14151.854,0
1488767830.424,18.131,393.636,70.639,-14773.439,0
1488767830.424,151.509,333.042,620.470,-14335.174,0
1488767830.426,131.856,351.051,252.067,-14606.990,0
1488767830.426,-13.017,395.700,157.814,-14983.867,0
1488767830.440,117.347,354.688,914.200,-14686.655,0
1488767830.440,168.615,345.032,1229.236,-14282.004,0
1488767830.454,53.266,412.681,459.273,-14706.276,0
1488767830.454,78.497,387.998,616.493,-14229.262,0
1488767830.456,155.627,327.344,656.549,-14222.169,0
1488767830.456,75.877,378.938,-247.785,-15153.225,0
1488767830.470,28.945,405.953,-900.633,-15740.026,0
1488767830.470,173.898,357.252,-347.134,-15289.247,0
1488767830.484,141.738,369.502,-745.227,-15575.854,0
1488767830.484,-5.711,413.070,-822.497,-15957.433,0
1488767830.486,139.930,367.911,-48.426,-15649.778,0
1488767830.486,186.509,362.320,260.256,-15239.771,0
1488767830.500,31.165,411.108,-559.212,-15712.315,0
1488767830.500,72.541,370.863,-371.658,-15225.745,0
1488767830.514,183.210,355.160,-300.987,-15163.945,0
1488767830.514,80.976,377.163,-1249.500,-16142.662,0
1488767830.516,26.669,409.762,-1867.863,-16717.820,0
1488767830.516,175.212,360.870,-1331.215,-16271.148,0
1488767830.530,130.708,360.921,-1761.842,-16580.420,0
1488767830.530,14.692,423.611,-1785.456,-16922.941,0
1488767830.544,131.659,353.331,-1036.476,-16642.877,0
1488767830.544,164.004,348.903,-746.497,-16245.642,0
1488767830.546,19.786,398.462,-1564.219,-16717.115,0
1488767830.546,78.216,377.687,-1327.792,-16197.590,0
1488767830.560,182.262,350.580,-1295.024,-16156.999,0
1488767830.560,76.868,381.399,-2260.076,-16160.611,0
1488767830.574,18.570,397.456,-2841.869,-16727.658,0
1488767830.574,174.433,355.375,-2316.460,-16278.185,0
1488767830.576,124.838,353.579,-2771.920,-16594.299,0
1488767830.576,-5.726,413.539,-2781.311,-16951.879,0
1488767830.590,141.217,367.685,-1997.737,-16631.764,0
1488767830.590,165.191,359.767,-1735.530,-16246.052,0
1488767830.604,16.037,404.835,-2555.010,-16710.334,0
1488767830.604,71.217,370.424,-2317.606,-16209.395,0
1488767830.606,204.591,368.704,-2286.395,-16163.897,0
1488767830.606,93.221,393.542,-2288.931,-16167.072,0
1488767830.619,15.618,404.599,-2861.539,-16737.490,0
1488767830.619,168.065,344.484,-2342.862,-16293.045,0
1488767830.621,143.676,375.327,1143.431,1059.566,0
1488767830.635,7.801,427.235,1122.896,692.532,0
1488767830.635,118.112,343.618,1903.605,991.591,0
1488767830.649,166.919,352.222,2162.547,1384.836,0
1488767830.649,19.900,400.195,1342.738,907.947,0
1488767830.651,72.283,376.967,1650.074,1463.653,0
1488767830.651,163.576,335.671,2613.765,1472.185,0
1488767830.665,119.142,417.173,1665.170,529.615,0
1488767830.665,16.313,395.455,1123.169,-42.915,0
1488767830.679,136.927,317.059,1603.415,376.303,0
1488767830.679,142.090,365.474,1152.177,87.216,0
1488767830.681,-11.051,402.935,1135.968,-292.365,0
1488767830.681,112.928,345.782,1924.554,25.054,0
1488767830.695,164.260,340.183,2169.666,406.866,0
1488767830.695,17.944,396.227,1347.486,-60.891,0
1488767830.709,78.611,381.010,1675.028,498.185,0
1488767830.709,176.647,336.307,2635.750,510.906,0
1488767830.711,71.701,375.566,2621.763,501.911,0
1488767830.711,13.101,395.910,2122.535,-30.605,0
1488767830.725,169.808,352.437,2619.719,410.117,0
1488767830.725,139.515,369.556,2141.577,89.862,0
1488767830.739,4.968,417.335,1188.374,-254.811,0
1488767830.739,123.761,354.733,1982.173,61.662,0
1488767830.741,171.196,354.299,2191.314,428.697,0
1488767830.741,14.169,403.047,1356.086,-55.081,0
1488767830.755,72.102,369.231,1695.214,503.149,0
1488767830.755,191.111,353.523,2646.931,527.801,0
1488767830.769,83.009,386.006,2606.809,494.972,0
1488767830.769,20.545,401.929,2132.691,-31.785,0
1488767830.771,191.311,374.216,2638.024,428.497,0
1488767830.771,142.083,369.422,2114.494,80.522,0
1488767830.785,9.110,416.408,1177.186,-267.853,0
1488767830.785,139.792,371.256,1990.481,71.802,0
1488767830.799,182.096,365.197,2178.570,421.642,0
1488767830.799,26.093,407.931,1346.259,-62.166,0
1488767830.801,78.121,377.979,1715.864,511.581,0
1488767830.801,178.255,343.153,2631.693,1491.220,0
1488767830.815,107.750,406.086,2605.143,1487.412,0
1488767830.815,14.189,395.004,2138.037,943.840,0
1488767830.829,162.508,343.947,2612.112,1373.826,0
1488767830.829,150.346,373.431,2108.060,1055.497,0
1488767830.831,4.191,409.096,1182.928,713.722,0
1488767830.831,136.095,353.148,1989.425,1038.800,0
1488767830.845,191.399,372.533,2196.565,1421.136,0
1488767830.845,4.112,391.627,1331.092,909.315,0
1488767830.859,77.902,380.654,1720.103,1493.179,0
1488767830.859,178.436,347.713,2637.854,1495.833,0
1488767830.861,99.651,405.732,2596.050,1487.893,0
1488767830.861,30.329,405.846,2161.282,968.814,0
1488767830.875,166.927,350.859,2614.321,1377.594,0
1488767830.875,126.472,367.735,2077.028,1032.023,0
1488767830.889,-1.735,423.162,1182.104,712.909,0
1488767830.889,137.361,366.450,1999.154,1056.099,0
1488767830.891,177.698,363.716,2171.386,1405.509,0
1488767830.891,19.403,408.728,1322.541,914.448,0
1488767830.905,62.009,366.583,1712.595,1483.671,0
1488767830.905,175.315,338.979,2614.022,1484.821,0
1488767830.919,64.173,375.755,2546.419,1445.271,0
1488767830.919,20.932,402.015,2149.489,947.161,0
1488767830.920,156.143,338.324,2597.620,1368.519,0
1488767830.920,128.707,362.482,2066.891,1038.578,0
1488767830.935,-3.697,413.687,1178.040,705.368,0
1488767830.935,120.556,347.719,1980.393,1029.858,0
1488767830.949,167.231,351.076,2136.906,1382.974,0
1488767830.949,23.687,405.923,1323.466,911.159,0
1488767830.951,57.927,360.207,1711.221,1472.636,0
1488767830.951,183.291,346.975,2602.594,1480.817,0
1488767830.965,83.357,391.074,2547.083,1456.654,0
1488767830.965,10.526,386.938,2159.656,951.116,0
1488767830.979,162.128,339.871,2603.692,1374.078,0
1488767830.979,148.743,375.383,2054.712,1038.729,0
1488767830.981,-9.574,399.612,1178.487,699.382,0
1488767830.981,134.653,350.530,1994.027,1042.187,0
1488767830.995,166.422,344.078,2129.835,1372.141,0
1488767830.995,33.581,410.306,1324.145,905.615,0
1488767831.009,75.682,375.742,1750.380,1497.445,0
1488767831.009,188.338,354.140,2618.955,2475.483,0
1488767831.011,86.055,394.574,2538.079,2433.166,0
1488767831.011,23.614,399.603,2189.678,1950.038,0
1488767831.025,170.998,345.651,2616.376,2362.756,0
1488767831.025,136.250,372.602,2047.489,2008.375,0
1488767831.039,-11.734,409.222,1193.206,1682.383,0
1488767831.039,136.824,352.435,2015.178,2031.373,0
1488767831.041,177.584,360.519,2137.328,2362.349,0
1488767831.041,22.280,404.240,1314.513,1883.316,0
1488767831.055,63.447,364.373,1756.287,2477.648,0
1488767831.055,179.203,349.649,2618.713,3454.291,0
1488767831.069,81.577,393.153,2537.662,3422.921,0
1488767831.069,23.103,405.224,2206.558,2941.106,0
1488767831.071,173.801,352.562,2632.643,3361.226,0
1488767831.071,133.466,361.517,2043.003,2997.315,0
1488767831.085,12.794,424.566,1218.010,2695.770,0
1488767831.085,144.968,367.152,2037.533,3031.525,0
1488767831.099,172.009,354.305,2136.481,3345.813,0
1488767831.099,26.149,413.981,1317.167,2878.206,0
1488767831.101,84.415,383.811,1795.292,3485.893,0
1488767831.101,189.594,356.887,2635.246,4451.455,0
1488767831.115,76.301,395.485,2512.659,4393.143,0
1488767831.115,28.842,403.247,2212.805,3921.347,0
1488767831.129,172.217,345.997,2636.627,4341.130,0
1488767831.129,152.934,387.500,2040.876,3985.577,0
1488767831.131,6.524,417.679,1201.467,3655.737,0
1488767831.131,143.178,356.895,2051.604,4008.819,0
1488767831.145,180.721,361.430,2144.232,4336.084,0
1488767831.145,32.285,413.483,1293.925,3844.187,0
1488767831.160,75.770,365.411,1799.056,4451.481,0
1488767831.160,193.639,355.799,2644.507,5425.125,0
1488767831.161,96.865,397.770,2494.003,5365.211,0
1488767831.161,26.574,393.189,2198.610,4882.420,0
1488767831.175,180.839,349.417,2642.800,5318.637,0
1488767831.175,158.377,386.272,2009.265,4943.300,0
1488767831.189,3.026,418.485,1155.973,4614.141,0
1488767831.189,124.555,342.177,2029.960,4969.896,0
1488767831.191,184.284,371.073,2122.049,5310.372,0
1488767831.191,41.288,433.176,1253.719,4807.792,0
1488767831.205,89.595,382.208,1797.936,5435.342,0
1488767831.205,191.775,357.940,2637.359,6402.007,0
1488767831.219,75.759,392.177,2448.684,6318.738,0
1488767831.219,37.306,407.296,2217.196,5872.557,0
1488767831.221,168.705,339.839,2665.032,6302.146,0
1488767831.221,149.486,387.465,2007.681,5927.483,0
1488767831.235,-2.844,411.294,1152.830,5584.381,0
1488767831.235,129.932,346.204,2058.908,5960.572,0
1488767831.249,168.742,353.387,2092.147,6266.856,0
1488767831.249,23.010,420.269,1169.786,5739.964,0
1488767831.251,84.918,376.124,1773.176,6384.572,0
1488767831.252,186.941,356.751,2591.315,7349.438,0
1488767831.265,88.260,397.334,2380.807,7268.506,0
1488767831.265,32.629,404.371,2189.863,6826.372,0
1488767831.279,179.624,347.704,2672.345,7282.054,0
1488767831.279,142.139,379.536,1978.650,6897.821,0
1488767831.281,4.892,419.888,1143.093,6571.866,0
1488767831.281,143.876,358.868,2101.601,6968.866,0
1488767831.295,176.980,362.568,2132.981,7279.735,0
1488767831.295,20.655,417.446,1187.444,6742.566,0
1488767831.309,84.034,370.648,1844.154,7406.599,0
1488767831.309,172.544,339.611,2658.575,8370.320,0
1488767831.311,86.545,404.736,2414.218,8281.468,0
1488767831.311,41.360,409.607,2244.991,7848.058,0
1488767831.325,181.301,356.702,2737.145,8312.638,0
1488767831.325,139.373,379.682,1985.440,7894.012,0
1488767831.339,11.988,431.706,1161.458,7565.963,0
1488767831.339,141.387,353.258,1166.486,7965.300,0
1488767831.341,181.589,366.948,1189.604,8283.530,0
1488767831.341,26.402,425.632,214.530,7727.773,0
1488767831.355,79.821,370.981,904.143,8406.234,0
1488767831.355,186.941,356.022,1716.418,9376.284,0
1488767831.369,81.266,404.332,1416.627,9255.138,0
1488767831.369,22.770,400.536,1262.312,8822.558,0
1488767831.371,183.925,357.022,1751.260,9284.879,0
1488767831.371,152.895,388.402,1012.256,8889.718,0
1488767831.385,-22.312,392.708,159.899,8531.614,0
1488767831.385,153.641,370.463,181.982,8932.369,0
1488767831.399,189.751,378.188,192.182,9245.805,0
1488767831.399,53.327,455.927,186.513,8690.044,0
1488767831.401,120.659,419.815,918.847,9393.375,0
1488767831.401,219.285,391.078,1711.333,10350.096,0
1488767831.415,114.826,444.571,1409.093,10234.597,0
1488767831.415,75.494,448.975,1282.816,9813.424,0
1488767831.429,209.620,378.160,1771.551,10268.763,0
1488767831.429,176.996,415.624,1009.023,9865.534,0
1488767831.431,16.802,432.860,167.056,9509.858,0
1488767831.431,166.044,372.539,217.075,9941.426,0
1488767831.445,190.931,378.839,193.439,10236.600,0
1488767831.445,29.637,429.759,173.292,9672.401,0
1488767831.459,94.144,377.988,920.967,10369.978,0
1488767831.459,203.026,364.554,1712.930,11339.406,0
1488767831.461,86.543,406.578,1381.257,11204.563,0
1488767831.461,29.865,404.360,1264.935,10771.850,0
1488767831.475,180.375,349.634,1746.296,11239.107,0
1488767831.475,153.175,393.456,963.815,10821.188,0
1488767831.489,10.550,422.016,158.633,10483.378,0
1488767831.489,141.785,355.188,192.354,10907.601,0
1488767831.491,180.304,362.235,160.827,11190.795,0
1488767831.491,25.214,422.513,155.946,10633.954,0
1488767831.505,95.489,383.375,925.930,11351.493,0
1488767831.505,215.059,373.782,1702.477,12315.597,0
1488767831.519,79.578,398.894,1346.454,12155.233,0
1488767831.519,40.754,408.530,1285.759,11757.667,0
1488767831.521,173.481,337.700,1737.496,12202.676,0
1488767831.521,126.223,357.961,924.468,11763.327,0
1488767831.535,7.242,419.237,158.514,11454.808,0
1488767831.535,151.372,356.628,207.493,11889.132,0
1488767831.549,174.831,354.522,162.158,12176.220,0
1488767831.549,9.494,398.456,155.228,11617.449,0
1488767831.551,101.561,375.512,944.184,12339.222,0
1488767831.551,198.000,363.290,1683.101,13278.693,0
1488767831.565,74.426,396.959,1336.079,13136.663,0
1488767831.565,37.184,407.978,1302.461,12748.293,0
1488767831.579,186.064,355.952,1760.376,13206.242,0
1488767831.579,147.879,388.338,933.571,12766.554,0
1488767831.581,6.994,422.175,157.968,12437.046,0
1488767831.581,141.531,346.199,210.025,12863.744,0
1488767831.595,161.373,349.163,126.734,13136.938,0
1488767831.595,21.033,414.377,-849.264,12583.639,0
1488767831.609,98.926,373.010,-16.970,13326.467,0
1488767831.609,195.234,357.295,704.107,14265.218,0
1488767831.611,85.546,407.415,334.758,14113.422,0
1488767831.611,21.415,391.487,321.751,13720.142,0
1488767831.624,197.884,352.899,781.450,14195.829,0
1488767831.624,142.391,383.310,-69.227,13744.790,0
1488767831.626,8.462,426.008,-1789.172,-290.759,0
1488767831.640,160.659,358.847,-1722.020,153.495,0
1488767831.640,188.728,366.265,-1822.522,416.109,0
1488767831.654,35.486,435.403,-1833.080,-152.741,0
1488767831.654,78.628,359.124,-1001.167,567.932,0
1488767831.656,195.483,353.596,-276.201,1519.510,0
1488767831.656,74.908,401.297,-666.620,1356.787,0
1488767831.670,28.403,396.910,-641.999,983.018,0
1488767831.670,184.796,347.715,-186.324,1449.673,0
1488767831.684,156.526,390.647,-1057.642,989.045,0
1488767831.684,3.291,424.402,-1784.656,676.669,0
1488767831.686,153.929,355.711,-1715.817,1126.215,0
1488767831.686,183.678,366.768,-1832.293,1386.832,0
1488767831.700,10.707,411.522,-1859.127,801.421,0
1488767831.700,102.415,376.284,-961.115,1575.938,0
1488767831.714,189.172,351.631,-273.675,2500.514,0
1488767831.714,76.500,399.343,-690.872,2332.959,0
1488767831.716,34.407,392.308,-612.280,1973.715,0
1488767831.716,187.921,349.221,-169.002,2445.139,0
1488767831.730,142.896,381.790,-1088.165,1958.297,0
1488767831.730,-10.436,405.742,-1812.195,1639.950,0
1488767831.744,149.641,346.951,-1698.159,2116.864,0
1488767831.744,180.086,362.608,-1830.361,2371.702,0
1488767831.746,1.049,411.984,-1898.450,1762.607,0
1488767831.746,83.673,359.337,-956.150,2549.035,0
1488767831.760,214.160,368.700,-238.521,3513.086,0
1488767831.760,90.908,414.444,-711.985,3306.124,0
1488767831.774,33.889,398.441,-627.525,2941.072,0
1488767831.774,183.091,347.526,-156.150,3422.638,0
1488767831.776,125.893,367.170,-1117.372,2926.926,0
1488767831.776,-15.962,408.532,-1838.888,2600.421,0
1488767831.790,136.370,343.502,-1681.010,3091.427,0
1488767831.790,179.702,358.258,-1824.458,3351.951,0
1488767831.804,17.290,420.877,-1910.259,2746.334,0
1488767831.804,93.615,368.462,-950.995,3536.700,0
1488767831.806,185.675,341.015,-271.330,4462.267,0
1488767831.806,76.773,400.953,-761.653,4264.699,0
1488767831.820,34.059,401.632,-628.941,3922.162,0
1488767831.820,175.844,339.676,-188.248,4385.317,0
1488767831.834,147.683,396.495,-1141.990,3910.177,0
1488767831.834,-9.860,409.983,-1843.935,3584.877,0
1488767831.836,140.755,346.812,-1710.901,4068.601,0
1488767831.836,179.461,366.310,-1878.707,4315.833,0
1488767831.850,24.966,425.687,-1914.913,3730.311,0
1488767831.850,86.291,365.811,-946.273,4515.224,0
1488767831.864,184.435,345.129,-299.669,5431.457,0
1488767831.864,64.149,397.837,-778.058,5226.753,0
1488767831.866,31.754,395.739,-601.237,4906.756,0
1488767831.866,190.137,354.724,-174.367,5382.081,0
1488767831.880,133.111,378.343,-1150.354,4877.093,0
1488767831.880,-0.550,416.185,-1788.310,4586.970,0
1488767831.894,152.511,352.671,-1670.856,5070.911,0
1488767831.894,172.163,361.592,-1865.911,5300.988,0
1488767831.896,7.016,410.688,-1894.140,4707.900,0
1488767831.896,106.331,374.987,-1874.892,5529.958,0
1488767831.910,175.278,337.075,-1264.198,6421.051,0
1488767831.910,81.765,412.260,-1721.016,6235.324,0
1488767831.924,12.166,374.005,-1546.065,5896.189,0
1488767831.924,182.490,343.465,-1160.409,6354.927,0
1488767831.926,141.127,386.199,-2123.062,5861.949,0
1488767831.926,-1.535,409.968,-2733.298,5573.692,0
1488767831.940,167.106,368.773,-2622.292,6071.209,0
1488767831.940,159.754,353.271,-2860.404,6269.257,0
1488767831.954,11.414,414.435,-2860.748,5689.947,0
1488767831.954,86.394,360.091,-2846.842,6504.989,0
1488767831.956,197.624,356.497,-2237.524,7414.546,0
1488767831.956,90.102,422.855,-2705.655,7219.854,0
1488767831.970,41.861,394.784,-2475.787,6910.415,0
1488767831.970,186.402,345.986,-2127.915,7348.310,0
1488767831.984,146.217,392.912,-2136.438,6834.224,0
1488767831.984,-3.992,402.170,-2710.393,6559.023,0
1488767831.986,146.219,346.030,-2635.257,7031.400,0
1488767831.986,179.562,364.982,-2863.297,7248.215,0
1488767832.000,17.707,411.082,-3833.857,6666.549,0
1488767832.000,113.925,386.373,-3770.793,7520.303,0
1488767832.014,191.574,349.606,-3232.470,8391.720,0
1488767832.014,47.495,380.477,-3725.710,8157.710,0
1488767832.016,55.680,418.854,-3422.051,7911.128,0
1488767832.016,172.101,330.218,-3126.272,8313.464,0
1488767832.030,134.855,382.021,-3136.486,7807.863,0
1488767832.030,10.545,423.353,-3665.517,7562.881,0
1488767832.044,154.379,358.454,-3600.564,8031.164,0
1488767832.044,174.771,366.089,-3857.664,8235.655,0
1488767832.046,23.245,428.267,-4798.854,7669.771,0
1488767832.046,114.355,379.439,-4751.980,8510.514,0
1488767832.060,201.440,358.238,-4212.352,9382.627,0
1488767832.060,91.734,418.467,-4687.510,9169.822,0
1488767832.074,43.190,402.366,-4395.426,8888.780,0
1488767832.074,180.143,338.294,-4101.879,9307.815,0
1488767832.076,142.161,385.561,-4138.889,8778.230,0
1488767832.076,-12.633,402.763,-4659.543,8523.454,0
1488767832.090,144.598,348.819,-4587.971,9005.548,0
1488767832.090,169.616,357.901,-4850.568,9204.172,0
1488767832.104,13.168,416.552,-5800.532,8628.653,0
1488767832.104,111.413,386.046,-5718.342,9492.595,0
1488767832.106,193.237,351.848,-5203.255,10350.484,0
1488767832.106,60.590,392.117,-5708.703,10114.987,0
1488767832.120,30.271,381.481,-5376.814,9854.391,0
1488767832.120,187.778,345.507,-5095.980,10284.096,0
1488767832.134,135.001,381.834,-5139.564,9749.398,0
1488767832.134,-2.010,410.996,-5627.405,9511.186,0
1488767832.136,155.008,350.847,-5551.042,10003.512,0
1488767832.136,184.787,365.416,-5850.911,10180.814,0
1488767832.150,17.318,417.848,-6785.646,9603.760,0
1488767832.150,99.788,372.546,-6700.883,10459.824,0
1488767832.164,214.743,379.411,-6191.604,11333.313,0
1488767832.164,74.706,412.275,-6714.076,11087.307,0
1488767832.166,74.757,428.254,-6319.888,10865.022,0
1488767832.166,221.112,386.917,-6063.729,11273.230,0
1488767832.180,194.952,453.261,-6133.149,10727.912,0
1488767832.180,71.916,484.861,-6569.921,10513.664,0
1488767832.194,248.505,446.826,-6508.443,10999.445,0
1488767832.194,278.314,468.437,-6824.240,11167.537,0
1488767832.195,117.020,527.657,-7765.367,10580.504,0
1488767832.195,226.825,498.710,-7646.515,11460.972,0
1488767832.210,342.947,507.867,-7147.928,12336.663,0
1488767832.210,212.735,544.662,-7665.284,12093.992,0
1488767832.224,194.263,546.396,-7257.146,11869.830,0
1488767832.224,322.260,484.811,-7018.199,12273.105,0
1488767832.225,263.050,513.632,-7113.465,11712.435,0
1488767832.225,153.530,564.736,-7519.955,11514.657,0
1488767832.240,275.251,483.012,-7466.828,11996.444,0
1488767832.240,281.312,484.311,-7801.743,12155.438,0
1488767832.254,123.768,531.462,-8724.784,11583.161,0
1488767832.254,211.624,483.730,-8598.961,12461.247,0
1488767832.256,269.740,433.791,-8150.683,13290.070,0
1488767832.256,152.786,495.299,-8666.053,13059.573,0
1488767832.270,135.444,500.212,-8227.914,12857.794,0
1488767832.270,244.064,424.636,-8000.414,13252.423,0
1488767832.284,182.943,438.266,-8108.015,12687.960,0
1488767832.284,66.082,477.125,-8518.099,12478.031,0
1488767832.286,183.756,387.480,-8469.029,12948.255,0
1488767832.286,180.663,382.360,-8823.986,13103.264,0
1488767832.300,17.566,432.562,-9746.915,12528.853,0
1488767832.300,100.093,378.349,-9608.608,13416.737,0
1488767832.314,179.287,345.613,-9155.305,14261.463,0
1488767832.314,49.935,393.819,-9687.642,14021.997,0
1488767832.316,-5.741,357.991,-9244.824,13799.869,0
1488767832.316,135.046,304.518,-9024.883,14198.436,0
1488767832.330,93.533,345.812,-9131.731,13644.908,0
1488767832.330,-35.120,377.689,-9522.117,13436.518,0
1488767832.344,104.160,297.442,-9475.341,13912.511,0
1488767832.344,117.812,304.116,-9835.097,14068.018,0
1488767832.346,-33.130,374.443,-10740.048,13504.572,0
1488767832.346,34.329,297.558,-10596.755,14380.425,0
1488767832.360,145.267,299.826,-10149.693,15235.023,0
1488767832.360,6.173,343.241,-10711.033,14971.671,0
1488767832.374,-34.790,317.906,-10228.761,14766.571,0
1488767832.374,133.634,290.770,-10001.264,15186.534,0
1488767832.376,77.936,330.291,-10137.744,14607.130,0
1488767832.376,-53.166,355.900,-10509.079,14404.865,0
1488767832.390,107.236,297.176,-10432.252,14904.211,0
1488767832.390,128.783,312.856,-10809.470,15058.256,0
1488767832.404,-29.347,375.015,-11719.499,14480.793,0
1488767832.404,56.142,312.427,-11548.337,15380.353,0
1488767832.406,135.497,292.920,-11139.853,16201.891,0
1488767832.406,21.710,355.838,-11693.750,15950.277,0
1488767832.420,-1.612,340.221,-11172.653,15770.965,0
1488767832.420,145.731,300.035,-10968.318,16178.018,0
1488767832.434,86.005,344.381,-11131.146,15589.301,0
1488767832.434,-49.750,364.597,-11483.808,15383.715,0
1488767832.436,125.272,317.964,-11400.686,15897.160,0
1488767832.436,130.345,320.472,-11803.320,16032.550,0
1488767832.450,-21.865,386.820,-12713.398,15453.587,0
1488767832.450,72.827,331.151,-12507.646,16371.446,0
1488767832.464,163.125,321.899,-12118.721,17195.648,0
1488767832.464,50.053,375.617,-12678.599,16933.713,0
1488767832.466,4.853,351.782,-12143.387,16751.459,0
1488767832.466,159.219,316.829,-11949.045,17156.965,0
1488767832.480,93.094,350.707,-12134.589,16554.807,0
1488767832.480,-19.915,390.603,-12436.986,16386.328,0
1488767832.494,129.885,328.247,-12378.713,16876.230,0
1488767832.494,146.540,346.821,-12794.294,17015.838,0
1488767832.496,-12.514,398.527,-13693.190,16438.436,0
1488767832.496,80.503,349.340,-13470.956,17361.410,0
1488767832.510,162.697,330.383,-13101.935,18174.545,0
1488767832.510,33.446,378.038,-13688.643,17892.033,0
1488767832.524,13.449,373.730,-13109.880,17735.455,0
1488767832.524,158.555,317.445,-12934.147,18131.445,0
1488767832.526,106.099,368.444,-13116.270,17541.305,0
1488767832.526,-31.567,386.625,-13423.379,17352.992,0
1488767832.540,138.530,337.004,-13340.385,17866.561,0
1488767832.540,149.991,347.519,-13779.498,17989.523,0
1488767832.554,-10.597,398.245,-14687.340,17400.438,0
1488767832.554,76.522,347.457,-14443.878,18339.830,0
1488767832.556,158.405,324.195,-14091.630,19143.092,0
1488767832.556,40.206,387.181,-14675.967,18873.527,0
1488767832.570,23.111,380.310,-14061.690,18731.744,0
1488767832.570,171.280,340.211,-13903.165,19127.465,0
1488767832.584,109.994,367.900,-14124.642,18504.176,0
1488767832.584,-19.945,394.918,-14391.174,18335.133,0
1488767832.586,127.858,325.252,-14331.396,18842.154,0
1488767832.586,148.740,350.225,-14771.269,18966.840,0
1488767832.600,7.955,417.036,-15654.547,18398.850,0
1488767832.600,96.218,363.260,-15390.826,19341.650,0
1488767832.614,173.348,341.356,-15061.335,20136.535,0
1488767832.614,52.804,398.032,-15661.204,19856.498,0
1488767832.616,45.881,396.607,-15013.160,19734.648,0
1488767832.616,171.308,339.387,-14889.539,20104.209,0
1488767832.629,117.394,381.062,-15098.158,19496.703,0
1488767832.629,-6.248,409.360,-15341.305,19334.328,0
1488767832.631,139.379,340.097,2359.979,1205.802,0
1488767832.645,162.467,359.962,1909.296,1336.446,0
1488767832.645,10.582,422.483,1029.566,756.167,0
1488767832.659,91.182,361.501,1283.433,1698.193,0
1488767832.659,177.382,345.109,1609.183,2501.163,0
1488767832.661,57.073,395.304,1007.131,2212.816,0
1488767832.661,30.740,382.887,1654.685,2080.431,0
1488767832.675,188.491,352.889,1799.948,2478.605,0
1488767832.675,127.931,380.219,1564.682,1850.650,0
1488767832.689,7.349,411.464,1328.515,1695.897,0
1488767832.689,157.085,346.176,1384.915,2199.757,0
1488767832.691,177.574,371.718,913.852,2312.685,0
1488767832.691,20.248,426.962,40.122,1736.276,0
1488767832.705,121.986,379.731,324.195,2702.728,0
1488767832.705,171.557,337.784,603.908,3465.793,0
1488767832.719,68.380,404.461,9.477,3193.237,0
1488767832.719,48.028,393.092,695.029,3069.596,0
1488767832.721,193.329,356.381,807.299,3449.923,0
1488767832.721,125.461,379.327,561.875,2819.873,0
1488767832.735,21.256,430.599,366.271,2682.806,0
1488767832.735,163.138,356.455,409.184,3182.507,0
1488767832.749,161.081,366.899,-81.726,3282.218,0
1488767832.749,14.417,421.115,-948.373,2711.880,0
1488767832.751,94.019,357.286,-664.453,3662.295,0
1488767832.751,194.695,354.686,-362.462,4456.199,0
1488767832.765,68.694,407.649,-983.124,4161.345,0
1488767832.765,42.343,386.440,-268.626,4052.667,0
1488767832.779,173.694,339.175,-182.415,4415.560,0
1488767832.779,118.358,375.664,-445.383,3780.289,0
1488767832.781,1.004,404.564,-621.828,3651.808,0
1488767832.781,135.504,331.224,-573.405,4153.484,0
1488767832.795,170.855,362.540,-1072.102,4258.603,0
1488767832.795,10.201,419.172,-1930.547,3686.701,0
1488767832.809,108.401,367.774,-1623.915,4652.319,0
1488767832.809,192.592,354.333,-1348.436,5434.248,0
1488767832.811,55.824,401.353,-1977.502,5139.866,0
1488767832.811,50.195,402.948,-1224.916,5049.241,0
1488767832.825,176.748,336.935,-1165.158,5399.181,0
1488767832.825,121.775,383.218,-1429.498,4767.366,0
1488767832.839,9.855,418.757,-1590.856,4634.417,0
1488767832.839,165.780,352.317,-1537.714,5145.131,0
1488767832.841,172.795,366.022,-2062.366,5235.475,0
1488767832.841,1.578,415.305,-2931.272,4649.185,0
1488767832.855,88.585,352.699,-2601.826,5625.290,0
1488767832.855,176.714,346.468,-2337.462,6402.948,0
1488767832.869,50.982,394.696,-2972.025,6105.039,0
1488767832.869,42.511,385.522,-2204.316,6021.220,0
1488767832.871,190.108,351.111,-2120.764,6399.296,0
1488767832.871,116.055,376.993,-2424.800,5737.749,0
1488767832.885,-9.404,406.305,-2564.260,5615.162,0
1488767832.885,151.058,341.769,-2507.367,6134.737,0
1488767832.899,183.564,369.704,-3022.879,6244.913,0
1488767832.899,11.678,419.738,-3913.786,5625.870,0
1488767832.901,98.509,365.484,-3566.359,5641.841,0
1488767832.901,175.403,351.515,-3339.641,6391.902,0
1488767832.915,39.809,398.333,-3978.625,6093.118,0
1488767832.915,26.619,385.109,-3173.688,6016.895,0
1488767832.929,150.363,324.429,-3132.589,6378.724,0
1488767832.929,98.999,368.173,-3419.832,5730.013,0
1488767832.931,-16.736,397.525,-3537.721,5609.296,0
1488767832.931,142.137,333.498,-3495.088,6120.393,0
1488767832.945,135.693,335.564,-4058.526,6189.055,0
1488767832.945,-7.747,401.938,-4902.412,5624.458,0
1488767832.959,75.486,331.149,-4545.688,5629.826,0
1488767832.959,149.983,319.862,-4325.802,6382.969,0
1488767832.961,25.882,373.917,-4976.410,6080.931,0
1488767832.961,15.380,366.000,-4147.964,6015.700,0
1488767832.975,164.571,327.505,-4110.043,6377.425,0
1488767832.975,109.620,374.330,-4420.578,5731.106,0
1488767832.989,-19.578,391.831,-4520.104,5608.797,0
1488767832.989,158.061,344.443,-4452.414,6144.584,0
1488767832.991,161.579,351.618,-5037.708,6200.056,0
1488767832.991,1.713,418.313,-5873.924,5625.439,0
1488767833.005,84.561,345.961,-5514.835,5631.724,0
1488767833.005,178.244,344.159,-5306.865,6390.836,0
1488767833.019,53.424,395.162,-5964.736,6078.816,0
1488767833.019,37.844,381.485,-5108.544,6025.392,0
1488767833.021,189.559,349.381,-5079.977,6387.782,0
1488767833.021,120.789,377.025,-5414.092,5723.030,0
1488767833.035,4.422,408.016,-5479.896,5619.753,0
1488767833.035,157.966,345.821,-5446.788,6129.548,0
1488767833.049,171.405,372.627,-6029.016,6197.721,0
1488767833.049,2.549,417.911,-6855.156,5624.245,0
1488767833.051,100.704,358.297,-6461.032,5661.892,0
1488767833.051,185.594,350.286,-6261.637,6421.980,0
1488767833.065,65.570,415.550,-6953.818,6080.938,0
1488767833.065,45.861,392.725,-6057.856,6044.247,0
1488767833.079,161.945,334.644,-5079.534,6379.867,0
1488767833.079,108.364,376.959,-5434.903,5710.462,0
1488767833.081,-17.353,398.488,-5469.448,5622.496,0
1488767833.081,138.202,339.136,-5444.651,6129.124,0
1488767833.095,174.567,370.130,-6027.866,6202.353,0
1488767833.095,3.355,406.147,-6872.455,5610.794,0
1488767833.109,97.793,359.836,-6456.482,5651.123,0
1488767833.109,172.791,338.313,-6299.641,6383.083,0
1488767833.111,58.126,402.903,-6969.759,6072.297,0
1488767833.111,22.570,367.307,-6065.947,6025.145,0
1488767833.125,166.977,333.588,-5089.259,6381.683,0
1488767833.125,112.715,376.569,-5447.493,5703.332,0
1488767833.139,11.865,420.271,-6424.000,5642.458,0
1488767833.139,152.693,342.694,-6394.972,6152.922,0
1488767833.141,163.234,361.489,-7022.352,6203.727,0
1488767833.141,-8.248,406.800,-7850.231,5617.617,0
1488767833.155,101.905,359.700,-7412.792,5669.338,0
1488767833.155,180.762,345.518,-7262.087,6405.046,0
1488767833.169,42.899,395.332,-7960.951,6069.446,0
1488767833.169,45.137,392.489,-6997.906,6063.369,0
1488767833.171,195.105,360.132,-6041.492,6405.721,0
1488767833.171,115.258,377.401,-6433.770,5712.399,0
1488767833.185,19.333,427.764,-7393.185,5652.056,0
1488767833.185,160.528,351.680,-7362.685,6163.504,0
1488767833.199,170.343,375.998,-8004.818,6208.007,0
1488767833.199,-2.152,415.120,-8825.348,5617.702,0
1488767833.201,119.830,373.674,-8363.042,5692.273,0
1488767833.201,190.875,360.244,-8241.924,6414.491,0
1488767833.215,55.308,409.317,-8948.099,6071.168,0
1488767833.215,57.591,396.246,-8946.968,6070.573,0
1488767833.229,185.377,350.803,-8012.911,6395.359,0
1488767833.229,100.882,370.087,-8424.880,5682.101,0
1488767833.231,-0.200,409.040,-9362.394,5624.286,0
1488767833.231,158.228,352.998,-9328.194,6147.772,0
1488767833.245,153.631,356.298,-9999.978,6168.890,0
1488767833.245,9.656,423.790,-10791.883,5617.849,0
1488767833.259,116.915,367.411,-10325.743,5686.703,0
1488767833.259,192.261,356.798,-10203.080,6409.104,0
1488767833.261,48.013,396.932,-10930.551,6057.654,0
1488767833.261,56.325,395.881,-10893.045,6079.530,0
1488767833.275,192.915,356.231,-9962.762,6407.802,0
1488767833.275,119.924,397.525,-10378.563,5707.457,0
1488767833.289,10.823,423.800,-11312.260,5636.684,0
1488767833.289,160.545,353.688,-11283.771,6159.808,0
1488767833.291,162.435,366.376,-11959.396,6182.368,0
1488767833.291,8.987,417.640,-12746.318,5622.378,0
1488767833.305,118.295,371.164,-12271.862,5697.889,0
1488767833.305,178.962,353.542,-12183.004,6396.844,0
1488767833.319,63.429,420.914,-12895.646,6059.651,0
1488767833.319,56.712,392.420,-12848.648,6071.479,0
1488767833.321,194.028,360.504,-11929.005,6406.609,0
1488767833.321,103.459,376.662,-12376.746,5681.812,0
1488767833.335,26.286,427.938,-13256.587,5648.049,0
1488767833.335,172.477,356.659,-13229.512,6173.118,0
1488767833.349,162.510,367.559,-13930.310,6178.542,0
1488767833.349,13.505,423.387,-14717.083,5610.474,0
1488767833.351,118.631,368.227,-14221.107,5692.668,0
1488767833.351,179.156,354.255,-14145.365,6401.041,0
1488767833.365,51.958,404.895,-14880.846,6048.136,0
1488767833.365,58.505,398.462,-14791.419,6078.719,0
1488767833.379,191.524,354.443,-13887.495,6400.502,0
1488767833.379,108.973,379.035,-14349.971,5674.658,0
1488767833.381,-9.095,400.971,-15233.354,5618.335,0
1488767833.381,150.297,341.806,-15200.508,6148.464,0
1488767833.395,162.914,366.065,-15907.761,6164.009,0
1488767833.395,7.633,424.271,-16688.135,5597.310,0
1488767833.409,110.845,361.527,-16176.501,5687.978,0
1488767833.409,179.777,352.798,-16117.521,6390.554,0
1488767833.411,53.544,407.129,-16857.631,6034.437,0
1488767833.411,47.687,384.136,-16744.199,6077.519,0
1488767833.425,172.422,334.265,-15863.241,6388.329,0
1488767833.425,106.780,388.634,-16315.813,5682.190,0
1488767833.439,-10.444,405.630,-17163.301,5644.739,0
1488767833.439,159.065,352.358,-17137.225,6171.820,0
1488767833.441,163.465,364.930,-17866.602,6179.597,0
1488767833.441,-6.345,406.920,-18652.924,5599.815,0
1488767833.455,97.338,344.890,-18112.629,5710.511,0
1488767833.455,185.003,344.955,-18061.471,6410.248,0
1488767833.469,56.998,404.448,-18823.258,6047.283,0
1488767833.469,50.988,385.105,-18667.320,6104.053,0
1488767833.471,177.488,342.889,-17811.143,6408.984,0
1488767833.471,100.158,368.591,-18304.369,5668.158,0
1488767833.485,-12.675,393.007,-19125.637,5640.012,0
1488767833.485,165.182,351.794,-19076.297,6194.966,0
1488767833.499,164.801,365.801,-19836.717,6179.162,0
1488767833.499,-7.987,411.643,-20616.316,5600.105,0
1488767833.501,109.471,354.232,-20064.504,5715.292,0
1488767833.501,179.435,342.930,-20042.639,6398.395,0
1488767833.515,42.861,395.810,-20812.389,6017.695,0
1488767833.515,47.893,379.635,-20627.859,6085.471,0
1488767833.529,185.344,343.695,-19775.748,6402.901,0
1488767833.529,114.102,384.910,-20281.447,5659.121,0
1488767833.531,-9.445,397.998,-21080.996,5626.842,0
1488767833.531,165.165,347.584,-21039.178,6180.873,0
1488767833.545,155.995,357.490,-21825.594,6154.985,0
1488767833.545,-6.492,407.531,-22580.840,5585.473,0
1488767833.559,97.998,343.964,-22024.285,5700.881,0
1488767833.559,185.791,347.590,-22007.236,6391.694,0
1488767833.561,42.796,396.435,-22780.605,6014.110,0
1488767833.561,48.187,385.518,-22569.838,6094.797,0
1488767833.575,172.694,338.904,-21745.414,6394.802,0
1488767833.575,120.885,390.547,-22247.621,5661.243,0
1488767833.589,-10.756,393.365,-23037.250,5631.014,0
1488767833.589,171.716,352.001,-22990.057,6196.271,0
1488767833.591,163.783,365.613,-23789.592,6162.156,0
1488767833.591,1.012,414.046,-24525.436,5597.394,0
1488767833.605,125.717,368.700,-23948.445,5732.440,0
1488767833.605,177.643,352.072,-22999.164,6391.075,0
1488767833.619,52.166,411.183,-23764.549,6011.023,0
1488767833.619,59.558,394.817,-23526.197,6109.085,0
1488767833.621,202.304,363.410,-22713.414,6417.539,0
1488767833.621,117.678,393.241,-23240.014,5655.553,0
1488767833.634,2.365,403.988,-23982.477,5650.066,0
1488767833.634,163.131,353.136,-23976.947,6196.378,0
1488767833.636,170.083,376.466,1694.835,1269.677,0
1488767833.650,2.610,423.542,959.095,696.186,0
1488767833.650,106.776,355.558,1534.713,821.033,0
1488767833.664,174.018,344.622,2477.065,1479.003,0
1488767833.664,56.723,412.118,1713.231,1110.765,0
1488767833.666,59.590,392.106,1975.767,1208.341,0
1488767833.666,184.605,348.465,2762.094,1503.212,0
1488767833.680,104.265,379.411,2217.374,734.662,0
1488767833.680,12.342,413.921,1515.234,-231.354,0
1488767833.694,171.873,351.281,1517.891,308.233,0
1488767833.694,172.293,375.331,701.710,278.176,0
1488767833.696,3.875,414.336,-23.730,-297.055,0
1488767833.696,118.998,368.455,579.144,-143.635,0
1488767833.710,197.340,368.429,1520.150,525.312,0
1488767833.710,53.058,415.733,723.072,135.397,0
1488767833.724,64.983,391.667,1028.785,243.707,0
1488767833.724,195.040,360.513,1811.125,551.910,0
1488767833.726,107.017,382.236,1230.562,-241.207,0
1488767833.726,5.692,417.909,540.513,-1215.215,0
1488767833.740,168.339,357.731,560.721,-653.375,0
1488767833.740,156.360,366.447,-296.374,-710.637,0
1488767833.754,-8.540,409.326,-1004.894,-1276.577,0
1488767833.754,112.964,359.339,-397.308,-1128.386,0
1488767833.756,193.366,360.754,528.663,-461.406,0
1488767833.756,40.658,399.577,-284.212,-871.595,0
1488767833.770,52.523,383.401,49.602,-741.052,0
1488767833.770,185.606,345.187,803.590,-460.400,0
1488767833.784,92.269,366.162,219.426,-1244.422,0
1488767833.784,15.294,419.338,-412.995,-2177.908,0
1488767833.786,162.884,348.695,548.778,-1647.760,0
1488767833.786,159.716,366.443,-311.429,-1702.703,0
1488767833.800,-7.143,405.987,-1017.675,-2265.158,0
1488767833.800,119.963,366.116,-377.612,-2097.571,0
1488767833.814,182.114,350.988,508.593,-1458.316,0
1488767833.814,34.209,395.199,-303.403,-1862.610,0
1488767833.816,52.196,387.038,64.717,-1721.031,0
1488767833.816,190.600,354.109,810.881,-1436.277,0
1488767833.830,98.468,382.818,213.885,-2226.970,0
1488767833.830,-19.526,389.922,-431.278,-3183.767,0
1488767833.844,160.810,348.226,-425.722,-2631.461,0
1488767833.844,143.023,352.409,-1314.038,-2697.642,0
1488767833.846,7.564,423.630,-1980.219,-3229.639,0
1488767833.846,116.000,366.585,-1349.057,-3064.790,0
1488767833.860,181.806,349.161,-467.549,-2433.691,0
1488767833.860,49.458,403.432,-1276.029,-2833.928,0
1488767833.874,63.144,393.421,-888.709,-2686.110,0
1488767833.874,198.860,363.890,-167.067,-2408.103,0
1488767833.876,106.391,385.883,-765.223,-3194.454,0
1488767833.876,-5.126,403.537,-1390.945,-4149.542,0
1488767833.890,165.094,351.317,-423.207,-3607.625,0
1488767833.890,157.551,358.163,-1310.251,-3668.174,0
1488767833.904,2.850,421.455,-1971.294,-4213.795,0
1488767833.904,110.026,354.320,-1353.326,-4056.123,0
1488767833.906,188.555,359.520,-473.864,-3411.609,0
1488767833.906,46.842,416.197,-1289.891,-3818.361,0
1488767833.920,54.298,386.124,-892.364,-3657.854,0
1488767833.920,197.115,361.527,-171.781,-3387.771,0
1488767833.934,112.653,395.487,-777.806,-4177.994,0
1488767833.934,9.223,410.202,-1364.162,-5107.553,0
1488767833.936,185.486,365.760,-401.013,-4567.693,0
1488767833.936,156.180,365.255,-1321.828,-4652.031,0
1488767833.950,-11.487,406.748,-1983.484,-5201.258,0
1488767833.950,123.563,360.575,-1330.649,-5026.232,0
1488767833.964,189.779,353.641,-486.510,-4401.933,0
1488767833.964,49.069,410.493,-1295.772,-4804.200,0
1488767833.966,54.210,383.353,-875.024,-4641.875,0
1488767833.966,182.498,343.609,-179.323,-4379.512,0
1488767833.980,107.580,386.732,-793.792,-5165.673,0
1488767833.980,10.956,411.761,-1348.703,-6092.368,0
1488767833.994,161.556,347.794,-421.696,-5566.054,0
1488767833.994,149.843,363.709,-1339.505,-5641.820,0
1488767833.996,-18.191,404.427,-1989.406,-6188.844,0
1488767833.996,102.400,349.391,-1327.259,-6010.524,0
1488767834.010,178.333,350.735,-487.810,-5383.213,0
1488767834.010,29.556,394.909,-1321.535,-5800.399,0
1488767834.024,51.811,380.582,-862.135,-5622.685,0
1488767834.024,180.701,342.173,-183.906,-5362.693,0
1488767834.026,108.928,393.452,-809.082,-6156.819,0
1488767834.026,2.367,409.435,-1357.427,-7076.296,0
1488767834.040,158.731,337.472,-418.037,-6551.242,0
1488767834.040,161.044,365.833,-1341.826,-6627.020,0
1488767834.054,-0.150,420.554,-1977.006,-7162.641,0
1488767834.054,131.007,371.647,-1300.509,-6967.719,0
1488767834.056,185.338,358.404,-487.442,-6360.234,0
1488767834.056,56.854,423.057,-1309.659,-6765.860,0
1488767834.070,54.217,380.217,-850.262,-6596.680,0
1488767834.070,174.509,339.373,-189.963,-6343.158,0
1488767834.084,118.048,389.030,-819.807,-7133.249,0
1488767834.084,15.033,411.785,-1331.526,-8035.792,0
1488767834.086,153.803,340.671,-414.063,-7524.467,0
1488767834.086,146.907,367.746,-1354.603,-7605.264,0
1488767834.100,-7.177,417.859,-1983.964,-8139.370,0
1488767834.100,124.642,369.124,-1300.799,-7948.645,0
1488767834.114,185.664,352.620,-495.099,-7342.397,0
1488767834.114,36.341,400.126,-1333.027,-7760.275,0
1488767834.116,42.985,375.174,-837.257,-7568.424,0
1488767834.116,190.017,352.551,-187.758,-7316.861,0
1488767834.130,104.680,378.684,-844.686,-8129.284,0
1488767834.130,18.905,412.345,-1319.538,-9013.695,0
1488767834.144,155.279,333.070,-396.285,-8488.955,0
1488767834.144,139.186,348.383,-1353.632,-8576.360,0
1488767834.146,18.552,448.319,-1988.215,-9129.054,0
1488767834.146,138.414,384.677,-1290.164,-8926.757,0
1488767834.160,236.696,404.362,-485.650,-8307.099,0
1488767834.160,78.158,448.214,-1343.146,-8735.965,0
1488767834.174,96.261,428.785,-810.713,-8531.326,0
1488767834.174,223.603,392.078,-167.972,-8280.583,0
1488767834.176,118.493,397.626,-858.612,-9122.318,0
1488767834.176,32.681,430.064,-1314.412,-10003.315,0
1488767834.190,178.315,367.944,-389.223,-9465.513,0
1488767834.190,167.667,378.485,-391.373,-9566.826,0
1488767834.204,6.204,429.694,-995.958,-10099.602,0
1488767834.204,124.709,368.977,-302.709,-9907.926,0
1488767834.206,185.780,361.848,477.825,-9302.897,0
1488767834.206,51.371,414.931,-365.067,-9724.841,0
1488767834.220,67.032,387.558,176.136,-9519.560,0
1488767834.220,182.021,347.197,788.880,-9291.996,0
1488767834.234,103.909,390.960,116.288,-10103.423,0
1488767834.234,8.306,407.784,-338.902,-10988.609,0
1488767834.236,166.745,352.355,579.937,-10451.887,0
1488767834.236,161.547,370.087,579.103,-10550.931,0
1488767834.250,9.827,425.840,-6.229,-11080.007,0
1488767834.250,126.790,357.116,682.988,-10890.500,0
1488767834.264,190.572,359.219,1454.041,-10284.167,0
1488767834.264,34.970,405.914,600.966,-10719.480,0
1488767834.266,68.160,397.574,1174.272,-10486.352,0
1488767834.266,192.981,345.567,1773.563,-10258.811,0
1488767834.280,131.893,413.156,1110.834,-11057.956,0
1488767834.280,10.649,406.413,657.334,-11957.578,0
1488767834.294,170.195,354.967,1558.708,-11423.701,0
1488767834.294,168.228,378.201,1548.236,-11533.513,0
1488767834.296,13.654,432.768,972.819,-12057.835,0
1488767834.296,118.493,357.865,1665.200,-11860.385,0
1488767834.310,188.409,359.408,2420.474,-11271.285,0
1488767834.310,36.468,399.980,1577.288,-11687.487,0
1488767834.324,65.630,384.015,2150.829,-11476.896,0
1488767834.324,200.978,367.593,2736.447,-11243.928,0
1488767834.326,104.317,398.415,2047.943,-12072.738,0
1488767834.326,-5.030,402.056,1631.591,-12952.991,0
1488767834.340,168.604,352.899,2554.167,-12399.178,0
1488767834.340,162.942,376.253,2521.031,-12512.220,0
1488767834.354,-11.360,406.215,1937.524,-13060.302,0
1488767834.354,121.076,364.814,2664.450,-12831.440,0
1488767834.356,194.222,366.469,3402.376,-12244.514,0
1488767834.356,55.958,422.869,2557.932,-12671.252,0
1488767834.370,66.477,393.926,3160.724,-12437.622,0
1488767834.370,177.995,347.869,3721.281,-12223.051,0
1488767834.384,105.052,393.363,3019.137,-13059.827,0
1488767834.384,7.493,409.951,2645.323,-13913.908,0
1488767834.386,175.098,356.515,3543.622,-13378.917,0
1488767834.386,167.663,382.581,3498.250,-13497.353,0
1488767834.400,-3.972,421.399,2932.216,-14025.931,0
1488767834.400,119.166,364.986,3654.770,-13816.536,0
1488767834.414,187.593,366.981,4380.638,-13227.803,0
1488767834.414,36.756,410.116,3514.025,-13672.664,0
1488767834.416,63.502,392.370,4151.829,-13415.121,0
1488767834.416,192.347,352.630,4707.517,-13193.246,0
1488767834.430,107.672,394.761,3990.383,-14036.949,0
1488767834.430,5.075,406.660,3629.023,-14896.658,0
1488767834.444,169.318,352.069,4521.369,-14365.759,0
1488767834.444,164.165,375.714,4466.388,-14486.112,0
1488767834.446,3.286,422.850,3920.225,-15004.504,0
1488767834.446,122.755,361.254,4650.079,-14779.390,0
1488767834.460,182.210,359.518,5356.993,-14207.288,0
1488767834.460,42.483,414.845,4491.887,-14651.199,0
1488767834.474,61.794,387.790,5147.247,-14393.264,0
1488767834.474,192.678,356.857,5696.131,-14174.168,0
1488767834.476,109.843,392.100,4957.822,-15023.835,0
1488767834.476,21.667,419.404,4628.805,-15860.611,0
1488767834.490,170.786,352.242,5502.312,-15342.118,0
1488767834.490,167.779,375.028,5436.827,-15470.452,0
1488767834.506,10.483,419.512,4902.986,-15984.797,0
1488767834.506,129.406,365.714,5644.603,-15759.025,0
1488767834.506,165.483,348.461,6338.419,-15185.887,0
1488767834.506,4.978,380.159,5451.304,-15644.455,0
1488767834.520,79.205,398.894,6139.006,-15375.469,0
1488767834.520,222.786,376.197,6687.057,-15145.402,0
1488767834.534,145.389,421.773,5936.706,-15990.313,0
1488767834.534,74.248,452.621,5642.753,-16819.273,0
1488767834.536,222.399,387.184,6518.647,-16294.089,0
1488767834.536,208.023,405.231,6421.204,-16436.912,0
1488767834.550,39.054,446.926,5891.320,-16957.490,0
1488767834.550,143.650,380.610,6636.662,-16730.631,0
1488767834.564,199.282,364.311,7305.432,-16176.802,0
1488767834.564,61.404,426.822,6434.735,-16612.557,0
1488767834.566,100.895,418.201,7166.037,-16317.869,0
1488767834.566,213.412,368.984,7673.083,-16119.473,0
1488767834.580,117.936,401.792,6891.657,-16990.676,0
1488767834.580,20.538,418.972,6605.917,-17823.883,0
1488767834.594,176.385,357.693,7475.656,-17297.348,0
1488767834.594,166.598,382.521,7369.491,-17436.697,0
1488767834.596,20.745,438.696,6866.875,-17943.502,0
1488767834.596,143.483,377.519,7634.880,-17701.195,0
1488767834.610,192.242,361.695,8288.516,-17156.732,0
1488767834.610,46.068,416.543,7400.237,-17612.301,0
1488767834.624,65.327,385.247,8137.317,-17320.365,0
1488767834.624,196.685,358.193,8642.781,-17103.641,0
1488767834.626,107.279,392.344,7860.779,-17980.498,0
1488767834.626,8.665,399.855,7591.955,-18806.893,0
1488767834.639,175.598,356.038,8469.267,-18264.227,0
1488767834.639,157.964,372.926,8349.066,-18416.664,0
1488767834.641,1.859,423.127,-1963.541,-300.881,0
1488767834.655,120.838,358.292,-1192.345,-60.867,0
1488767834.655,191.606,363.350,-539.679,497.652,0
1488767834.669,41.475,417.502,-1437.225,37.954,0
1488767834.669,67.223,391.199,-676.894,344.658,0
1488767834.671,193.188,356.702,-186.475,544.382,0
1488767834.671,102.810,390.318,-986.328,-343.736,0
1488767834.685,1.070,399.068,-1233.030,-1161.461,0
1488767834.685,179.491,364.335,-342.431,-609.256,0
1488767834.699,150.918,368.219,-499.035,-782.888,0
1488767834.699,-0.997,419.652,-987.040,-1297.805,0
1488767834.701,125.272,364.276,-200.814,-1039.959,0
1488767834.701,177.778,357.334,422.633,-499.063,0
1488767834.715,30.886,401.605,-477.905,-960.264,0
1488767834.715,65.957,386.096,314.582,-640.703,0
1488767834.729,188.429,347.063,787.288,-446.043,0
1488767834.729,95.425,386.147,-22.127,-1334.800,0
1488767834.731,16.540,411.853,-228.214,-2129.428,0
1488767834.734,176.086,361.394,633.853,-1599.082,0
1488767834.746,152.322,373.094,476.792,-1762.523,0
1488767834.746,8.284,429.243,3.598,-2265.917,0
1488767834.759,127.439,366.080,790.224,-2013.454,0
1488767834.759,192.014,365.844,1404.504,-1468.597,0
1488767834.760,47.145,424.398,505.447,-1931.847,0
1488767834.760,68.450,380.144,1313.421,-1618.651,0
1488767834.775,192.964,356.332,1769.840,-1424.642,0
1488767834.775,106.314,397.750,948.382,-2312.464,0
1488767834.789,14.657,405.411,770.547,-3102.585,0
1488767834.789,166.113,343.538,1606.958,-2583.635,0
1488767834.790,169.429,387.831,1455.616,-2731.152,0
1488767834.790,6.107,420.030,987.717,-3237.134,0
1488767834.805,134.216,364.051,1796.581,-2972.269,0
1488767834.805,182.915,358.808,2370.410,-2459.365,0
1488767834.819,36.292,411.172,1475.239,-2921.696,0
1488767834.819,54.578,378.672,2301.456,-2596.416,0
1488767834.821,190.234,353.189,2750.919,-2397.130,0
1488767834.821,105.779,399.778,1917.733,-3291.789,0
1488767834.835,5.513,405.835,1758.873,-4085.597,0
1488767834.835,172.864,352.983,2601.878,-3544.660,0
1488767834.849,164.034,377.103,2419.098,-3725.039,0
1488767834.849,-2.582,416.711,1968.186,-4229.821,0
1488767834.851,131.944,363.507,2776.178,-3957.375,0
1488767834.851,197.222,364.687,3356.373,-3435.863,0
1488767834.865,41.709,411.269,2438.370,-3910.527,0
1488767834.865,79.275,389.873,3307.969,-3556.461,0
1488767834.879,195.831,354.804,3732.809,-3381.739,0
1488767834.879,102.153,400.100,2887.289,-4277.718,0
1488767834.881,20.511,411.191,2758.666,-5048.231,0
1488767834.881,183.435,354.019,3604.068,-4513.655,0
1488767834.895,163.348,381.565,3371.675,-4722.794,0
1488767834.895,4.327,426.603,2936.822,-5216.696,0
1488767834.909,106.350,349.064,3741.695,-4962.176,0
1488767834.909,158.280,344.445,4316.725,-4434.096,0
1488767834.911,9.436,386.270,3397.742,-4903.727,0
1488767834.911,41.167,361.014,4286.471,-4553.573,0
1488767834.925,169.137,328.193,4689.578,-4376.704,0
1488767834.925,83.796,374.083,3830.736,-5290.425,0
1488767834.939,-4.682,386.771,3723.678,-6048.660,0
1488767834.939,155.275,330.833,4555.972,-5523.677,0
1488767834.941,139.515,350.189,4331.294,-5721.263,0
1488767834.941,-16.229,406.361,3910.290,-6211.313,0
1488767834.955,110.275,346.829,4739.479,-5934.656,0
1488767834.955,169.214,348.259,5290.851,-5414.019,0
1488767834.969,17.710,396.884,4363.259,-5889.861,0
1488767834.969,58.002,373.292,5285.935,-5527.680,0
1488767834.971,179.311,341.043,5680.362,-5351.387,0
1488767834.971,92.564,387.278,4814.044,-6254.446,0
1488767834.985,11.648,404.925,4730.790,-7013.395,0
1488767834.985,170.876,354.376,5569.113,-6475.655,0
1488767834.999,147.303,375.647,5321.034,-6680.893,0
1488767834.999,-7.970,412.479,4912.016,-7174.186,0
1488767835.001,131.175,358.236,5751.569,-6883.156,0
1488767835.001,179.242,343.725,6279.024,-6381.851,0
1488767835.015,40.421,413.749,5358.788,-6856.328,0
1488767835.015,73.798,388.965,6297.221,-6486.020,0
1488767835.029,196.113,355.268,6672.877,-6317.192,0
1488767835.029,103.951,394.546,5784.789,-7237.140,0
1488767835.031,14.305,404.395,5717.740,-7994.907,0
1488767835.031,177.976,351.154,6542.326,-7460.840,0
1488767835.045,152.395,381.487,6289.221,-7669.313,0
1488767835.045,-9.613,414.560,5881.673,-8169.188,0
1488767835.059,139.188,368.122,6742.469,-7868.861,0
1488767835.059,182.819,358.683,7247.144,-7373.517,0
1488767835.061,27.445,397.740,6307.809,-7863.788,0
1488767835.061,69.701,382.612,7281.590,-7471.085,0
1488767835.075,194.103,353.815,7643.547,-7299.732,0
1488767835.075,89.385,384.297,6734.748,-8236.421,0
1488767835.089,12.931,399.707,6713.255,-8972.770,0
1488767835.089,183.076,359.799,7523.842,-8438.347,0
1488767835.091,150.475,374.921,7251.929,-8656.125,0
1488767835.091,-0.651,418.815,6864.771,-9141.986,0
1488767835.105,131.355,362.230,7726.464,-8847.012,0
1488767835.105,183.483,357.802,8225.956,-8346.686,0
1488767835.119,34.471,423.424,7284.541,-8836.564,0
1488767835.119,69.467,383.127,7299.267,-8446.304,0
1488767835.121,185.765,352.018,7640.643,-8283.643,0
1488767835.121,89.649,389.931,6732.786,-9210.527,0
1488767835.135,19.997,414.568,5766.329,-9934.625,0
1488767835.135,173.563,354.913,6556.676,-9407.125,0
1488767835.149,150.305,375.069,6258.210,-9637.750,0
1488767835.149,-9.266,415.753,5892.462,-10128.903,0
1488767835.151,137.722,361.024,6776.846,-9807.637,0
1488767835.151,187.094,359.977,7241.568,-9322.432,0
1488767835.165,32.262,411.148,6301.271,-9821.144,0
1488767835.165,76.163,384.004,6352.562,-9402.661,0
1488767835.179,187.883,350.300,6655.716,-9267.059,0
1488767835.179,105.635,402.114,5723.688,-10193.544,0
1488767835.181,26.159,407.311,4794.424,-10914.783,0
1488767835.181,186.857,358.913,5585.441,-10391.757,0
1488767835.195,144.921,369.958,5252.770,-10636.742,0
1488767835.195,0.827,425.782,4913.247,-11100.572,0
1488767835.209,139.639,370.312,5810.955,-10779.425,0
1488767835.209,196.326,371.611,6251.857,-10302.986,0
1488767835.211,31.898,413.448,5287.659,-10813.670,0
1488767835.211,77.137,376.513,5401.002,-10381.369,0
1488767835.225,195.612,353.400,5680.042,-10236.095,0
1488767835.225,103.659,407.481,4712.612,-11196.399,0
1488767835.239,27.806,411.742,3831.944,-11894.725,0
1488767835.239,172.202,345.483,4625.818,-11363.418,0
1488767835.241,140.581,363.870,4240.863,-11625.383,0
1488767835.241,-3.443,413.597,3905.753,-12101.816,0
1488767835.255,123.723,353.763,4859.931,-11763.264,0
1488767835.255,188.201,367.681,5264.399,-11284.835,0
1488767835.269,28.807,416.597,5256.575,-11796.737,0
1488767835.269,76.275,379.374,5430.119,-11357.208,0
1488767835.271,199.174,357.622,5701.963,-11208.571,0
1488767835.271,91.080,399.107,5658.150,-12179.760,0
1488767835.285,13.989,400.698,4808.954,-12876.642,0
1488767835.285,190.099,360.266,5636.752,-12320.280,0
1488767835.299,158.041,379.828,5221.414,-12587.052,0
1488767835.299,-9.836,413.657,4885.377,-13073.107,0
1488767835.301,127.319,348.890,5856.780,-12733.949,0
1488767835.301,195.642,372.012,6238.648,-12263.307,0
1488767835.315,41.146,427.637,6220.828,-12778.916,0
1488767835.315,70.952,368.315,6436.308,-12331.076,0
1488767835.329,192.444,351.552,6680.360,-12189.949,0
1488767835.329,82.203,397.076,6576.492,-12212.612,0
1488767835.331,9.440,400.425,5792.400,-12889.194,0
1488767835.331,177.860,346.201,6696.347,-12302.227,0
1488767835.345,165.036,398.423,6188.854,-12577.670,0
1488767835.345,-6.154,428.471,5687.744,-13136.867,0
1488767835.359,131.697,329.491,6107.587,-12685.261,0
1488767835.359,191.488,357.437,6451.316,-12179.909,0
1488767835.361,30.235,453.386,5877.510,-12849.329,0
1488767835.361,53.249,342.999,6440.692,-12390.033,0
1488767835.375,202.660,346.139,6984.820,-12084.740,0
1488767835.375,114.447,445.794,6466.907,-12177.354,0
1488767835.389,2.556,398.155,5521.779,-13000.249,0
1488767835.389,187.006,332.629,5962.113,-12253.086,0
1488767835.391,168.075,395.633,5264.688,-12537.435,0
1488767835.391,-3.198,445.473,4442.060,-13203.417,0
1488767835.405,134.597,326.443,5147.280,-12701.812,0
1488767835.405,194.127,362.662,5462.597,-12183.464,0
1488767835.419,22.855,455.245,4841.175,-12873.688,0
1488767835.419,61.478,346.167,5474.525,-12391.932,0
1488767835.421,202.415,343.014,6003.483,-12089.944,0
1488767835.421,97.338,431.409,5451.257,-12202.870,0
1488767835.435,-14.911,383.302,4533.497,-13025.027,0
1488767835.435,171.592,315.995,4984.508,-12264.487,0
1488767835.449,149.418,382.351,4259.181,-12550.619,0
1488767835.449,-9.453,440.070,3449.306,-13216.374,0
1488767835.451,126.566,312.154,4183.543,-12694.790,0
1488767835.451,194.376,359.833,4474.872,-12196.144,0
1488767835.465,10.320,439.547,3831.501,-12893.452,0
1488767835.465,30.832,323.483,4502.957,-12401.563,0
1488767835.479,191.058,333.564,5034.959,-12088.087,0
1488767835.479,77.549,412.118,4450.892,-12210.696,0
1488767835.481,-33.107,364.289,3569.495,-13024.510,0
1488767835.481,165.696,304.338,4019.968,-12253.677,0
1488767835.495,149.626,382.481,3280.874,-12550.864,0
1488767835.495,-42.885,410.473,2461.189,-13237.696,0
1488767835.509,99.569,290.590,3201.736,-12712.399,0
1488767835.509,190.813,353.071,3503.278,-12178.613,0
1488767835.511,10.386,440.418,2843.238,-12890.219,0
1488767835.511,42.240,328.924,3548.301,-12389.213,0
1488767835.525,213.264,347.001,4072.633,-12069.124,0
1488767835.525,96.078,426.491,3469.095,-12192.346,0
1488767835.539,-3.897,385.602,2623.946,-12996.237,0
1488767835.539,176.248,321.183,3043.100,-12245.787,0
1488767835.541,165.010,402.871,2286.627,-12548.364,0
1488767835.541,-21.753,428.772,1498.215,-13219.979,0
1488767835.555,118.218,300.778,2240.767,-12696.574,0
1488767835.555,203.206,371.355,2513.074,-12181.962,0
1488767835.569,8.555,442.411,1848.049,-12905.715,0
1488767835.569,36.202,324.578,2574.878,-12387.476,0
1488767835.571,200.202,345.887,3005.836,-12099.715,0
1488767835.571,102.427,430.750,2467.945,-12230.095,0
1488767835.585,14.475,398.793,1849.676,-12921.494,0
1488767835.585,179.362,350.204,2804.175,-12294.523,0
1488767835.599,154.323,393.406,2145.272,-12631.328,0
1488767835.599,-0.434,428.768,1867.483,-13126.181,0
1488767835.601,132.768,340.148,2068.266,-12700.562,0
1488767835.601,199.468,380.720,2290.896,-12269.459,0
1488767835.615,46.337,446.320,2193.337,-12825.526,0
1488767835.615,86.715,376.204,2638.350,-12289.278,0
1488767835.629,203.839,356.012,2770.288,-12177.469,0
1488767835.629,108.734,423.579,2597.228,-12224.521,0
1488767835.631,18.771,394.528,1961.426,-12862.256,0
1488767835.631,183.182,347.012,2738.912,-12307.017,0
1488767835.644,157.788,387.805,2186.072,-12619.650,0
1488767835.644,-2.197,420.322,1949.176,-13088.933,0
1488767835.646,148.435,358.744,2051.825,1045.087,0
1488767835.660,189.512,360.523,2293.997,1462.132,0
1488767835.660,29.362,424.252,2211.423,891.745,0
1488767835.674,71.819,369.919,2608.445,1426.919,0
1488767835.674,190.050,351.848,2743.443,1530.816,0
1488767835.676,70.475,389.795,2587.433,1481.875,0
1488767835.676,1.215,386.231,1958.221,862.297,0
1488767835.690,159.520,333.363,2711.113,1398.167,0
1488767835.690,116.795,361.246,2171.232,1080.496,0
1488767835.704,-38.863,391.100,1945.357,616.225,0
1488767835.704,89.372,310.064,1998.791,1009.646,0
1488767835.706,149.564,334.798,2241.958,1413.860,0
1488767835.706,-21.592,387.356,2182.411,856.353,0
1488767835.720,24.369,335.473,2585.439,1404.224,0
1488767835.720,136.478,312.132,2707.470,1492.461,0
1488767835.734,39.241,370.704,2556.214,1455.661,0
1488767835.734,-29.809,362.596,1948.050,839.826,0
1488767835.736,123.529,303.326,2678.469,1368.235,0
1488767835.736,113.932,359.546,2147.811,1070.303,0
1488767835.750,-50.706,387.067,1948.392,618.755,0
1488767835.750,80.541,312.687,2011.797,1011.510,0
1488767835.764,134.120,330.386,2231.103,1408.600,0
1488767835.764,-26.576,387.037,2174.869,865.293,0
1488767835.766,44.428,346.455,2633.245,1431.632,0
1488767835.766,162.192,328.171,2729.055,1520.845,0
1488767835.780,59.764,381.986,2534.536,1462.940,0
1488767835.780,-14.256,371.499,1978.465,866.666,0
1488767835.794,165.276,342.560,2733.519,1424.934,0
1488767835.794,124.679,365.839,2134.679,1082.437,0
1488767835.796,-23.387,405.745,1953.724,629.861,0
1488767835.796,119.886,337.530,2058.398,1046.607,0
1488767835.810,165.515,356.239,2246.921,1435.267,0
1488767835.810,12.661,411.449,2157.208,872.876,0
1488767835.824,69.196,364.098,2676.738,1452.053,0
1488767835.824,179.409,346.625,2753.030,1539.150,0
1488767835.826,80.167,397.800,2501.421,1455.713,0
1488767835.826,21.716,400.154,2007.634,887.177,0
1488767835.840,191.262,348.158,2771.032,1443.399,0
1488767835.840,146.267,384.224,2125.136,1086.415,0
1488767835.854,-15.001,414.534,1930.583,623.307,0
1488767835.854,126.683,343.016,2092.145,1059.078,0
1488767835.856,180.379,362.249,2259.676,1450.819,0
1488767835.856,10.606,408.879,2105.554,847.873,0
1488767835.870,72.982,359.876,2704.471,1465.523,0
1488767835.870,194.411,350.047,2778.179,1554.269,0
1488767835.884,79.002,398.066,2462.617,1439.996,0
1488767835.884,6.489,384.149,2005.688,867.028,0
1488767835.886,187.737,351.852,2800.171,1450.503,0
1488767835.886,141.890,379.166,2099.049,1068.723,0
1488767835.900,-13.065,412.191,1916.160,611.109,0
1488767835.900,144.854,350.487,2142.893,1078.322,0
1488767835.914,184.873,368.186,2259.775,1451.300,0
1488767835.914,18.780,423.100,2076.486,840.208,0
1488767835.916,82.828,369.205,2747.145,1478.117,0
1488767835.916,186.858,345.531,2776.913,1555.725,0
1488767835.930,85.384,410.353,2428.190,1433.203,0
1488767835.930,19.176,397.929,2039.244,882.416,0
1488767835.944,196.502,358.249,2831.080,1468.431,0
1488767835.944,162.794,401.921,2089.263,1088.494,0
1488767835.946,0.542,431.446,1910.406,619.264,0
1488767835.946,142.294,347.983,2185.754,1098.721,0
1488767835.960,189.856,373.801,2257.731,1461.755,0
1488767835.960,8.205,426.046,2030.924,835.168,0
1488767835.974,44.174,335.476,2786.053,1497.420,0
1488767835.974,197.624,348.961,2805.503,1575.541,0
1488767835.976,105.095,428.166,2376.820,1420.795,0
1488767835.976,56.046,422.313,2050.222,890.044,0
1488767835.990,240.365,388.938,2877.943,1492.626,0
1488767835.990,213.382,439.017,2053.646,1072.130,0
1488767836.004,95.459,505.586,1897.988,618.922,0
1488767836.004,250.012,429.733,2273.135,1148.209,0
1488767836.006,286.355,451.692,2305.360,1495.453,0
1488767836.006,114.963,507.920,1996.755,828.319,0
1488767836.020,190.174,445.516,2874.321,1532.772,0
1488767836.020,316.652,442.378,2889.484,1633.519,0
1488767836.034,189.862,488.882,2377.252,1450.354,0
1488767836.034,114.458,465.679,2096.330,917.070,0
1488767836.035,262.391,405.631,2940.506,1530.984,0
1488767836.035,213.518,443.328,2042.750,1083.988,0
1488767836.050,47.721,462.691,1854.779,588.668,0
1488767836.050,193.302,376.535,2329.864,1156.297,0
1488767836.064,242.435,413.128,2291.175,1498.159,0
1488767836.064,62.524,468.327,1909.174,792.859,0
1488767836.066,125.629,387.497,1970.787,1545.519,0
1488767836.066,229.009,375.712,2900.468,1634.243,0
1488767836.080,100.259,446.151,2136.825,1367.390,0
1488767836.080,25.772,385.359,2088.076,850.117,0
1488767836.094,220.731,331.426,2392.947,1644.032,0
1488767836.095,182.326,417.872,2136.427,1164.251,0
1488767836.096,-14.086,439.719,1434.197,460.754,0
1488767836.096,165.154,326.976,1609.365,1182.590,0
1488767836.110,210.985,372.313,1486.793,1561.952,0
1488767836.110,7.298,451.810,1483.644,681.038,0
1488767836.124,66.862,328.356,1923.982,1447.147,0
1488767836.124,206.044,336.567,2149.620,1679.310,0
1488767836.126,85.601,442.359,2072.017,1375.406,0
1488767836.126,-0.170,382.704,1797.886,739.230,0
1488767836.140,198.398,320.925,2267.952,1583.724,0
1488767836.140,147.909,394.584,2019.716,1110.664,0
1488767836.154,-62.606,399.904,1367.504,412.694,0
1488767836.154,168.888,330.678,1583.025,1150.623,0
1488767836.156,224.480,388.854,1464.500,1550.996,0
1488767836.156,37.646,485.865,510.874,685.890,0
1488767836.170,112.786,359.741,993.615,1475.471,0
1488767836.170,250.543,375.290,1207.703,1718.020,0
1488767836.184,113.416,472.626,1097.466,1393.752,0
1488767836.184,21.878,406.976,865.263,768.916,0
1488767836.186,210.887,341.240,1316.454,1601.449,0
1488767836.186,177.673,432.252,1056.105,1119.638,0
1488767836.200,-7.033,457.143,428.355,439.889,0
1488767836.200,183.958,350.043,663.144,1201.099,0
1488767836.214,222.070,395.507,512.924,1575.528,0
1488767836.214,15.291,473.497,508.854,686.030,0
1488767836.216,85.546,342.889,1020.172,1479.923,0
1488767836.216,226.172,358.875,1203.589,1710.179,0
1488767836.230,98.432,455.078,1082.162,1381.794,0
1488767836.230,25.310,395.992,891.626,785.018,0
1488767836.245,236.997,359.359,1330.733,1610.614,0
1488767836.245,188.502,434.724,1034.503,1109.426,0
1488767836.246,12.491,466.867,433.307,432.875,0
1488767836.246,211.684,371.768,668.500,1201.699,0
1488767836.260,245.450,414.888,495.425,1559.478,0
1488767836.260,70.456,524.098,-465.561,691.092,0
1488767836.274,156.427,410.611,63.023,1492.514,0
1488767836.274,315.300,443.868,255.162,1740.710,0
1488767836.276,202.830,562.444,126.652,1413.252,0
1488767836.276,117.324,491.845,-48.357,814.303,0
1488767836.290,322.190,446.843,366.228,1622.707,0
1488767836.290,308.918,564.379,84.453,1141.689,0
1488767836.304,100.497,558.287,-513.258,453.973,0
1488767836.304,284.389,450.222,-286.794,1226.231,0
1488767836.306,333.335,510.530,-461.238,1585.069,0
1488767836.306,136.213,591.920,-1417.890,708.784,0
1488767836.320,196.206,451.973,-884.997,1508.309,0
1488767836.320,338.934,477.712,-729.509,1737.312,0
1488767836.334,196.249,561.110,-879.022,1389.921,0
1488767836.334,115.972,494.046,-1012.305,807.072,0
1488767836.336,307.203,431.923,-596.400,1633.072,0
1488767836.336,238.086,492.519,-932.901,1115.451,0
1488767836.350,39.890,504.324,-1509.949,433.593,0
1488767836.350,259.390,426.668,-1241.501,1238.952,0
1488767836.364,266.225,442.434,-1470.248,1562.841,0
1488767836.364,75.086,532.784,-2423.175,701.085,0
1488767836.366,130.580,390.634,-1858.938,1506.972,0
1488767836.366,271.154,404.519,-1716.494,1739.057,0
1488767836.380,120.357,488.410,-1903.601,1360.961,0
1488767836.380,42.149,411.062,-1999.956,791.176,0
1488767836.394,230.279,352.977,-1593.947,1619.281,0
1488767836.394,183.317,429.490,-1934.611,1099.162,0
1488767836.396,-23.642,424.318,-2491.949,430.251,0
1488767836.396,150.037,310.187,-2249.602,1207.733,0
1488767836.410,188.814,351.878,-2468.326,1552.707,0
1488767836.410,-29.626,426.831,-2475.713,659.006,0
1488767836.424,30.058,286.675,-1878.381,1486.524,0
1488767836.424,192.678,314.138,-1736.421,1717.379,0
1488767836.426,44.510,405.514,-1927.305,1350.913,0
1488767836.426,-50.790,320.180,-2024.430,762.029,0
1488767836.440,166.182,282.475,-1603.929,1613.434,0
1488767836.440,110.349,355.550,-1970.424,1084.530,0
1488767836.454,-82.214,377.468,-2516.670,418.446,0
1488767836.454,110.830,271.865,-2261.012,1202.260,0
1488767836.456,164.245,329.730,-2476.636,1556.673,0
1488767836.456,-43.824,410.301,-2495.572,648.031,0
1488767836.470,23.690,277.310,-1869.742,1489.660,0
1488767836.470,181.912,302.975,-1755.240,1712.956,0
1488767836.484,41.606,402.783,-1953.294,1335.649,0
1488767836.484,-47.250,327.881,-2007.728,767.558,0
1488767836.486,164.326,280.418,-1612.198,1604.295,0
1488767836.486,98.709,355.715,-2010.714,1057.945,0
1488767836.500,-75.993,383.003,-2515.245,413.882,0
1488767836.500,123.103,278.110,-2250.268,1203.320,0
1488767836.514,164.737,328.301,-2498.982,1541.072,0
1488767836.514,-43.100,411.101,-2511.193,641.982,0
1488767836.516,23.109,274.019,-1874.039,1481.026,0
1488767836.516,186.806,310.298,-1760.906,1707.281,0
1488767836.530,52.589,418.454,-1974.966,1332.465,0
1488767836.530,-48.594,330.514,-2012.077,757.051,0
1488767836.544,170.311,293.713,-1620.788,1605.969,0
1488767836.544,81.268,344.443,-2043.786,1024.018,0
1488767836.546,-60.134,398.348,-2498.988,411.759,0
1488767836.546,104.401,265.911,-2262.905,1189.417,0
1488767836.560,158.448,340.890,-2516.433,1527.734,0
1488767836.560,-41.812,413.360,-3493.201,631.736,0
1488767836.574,44.694,298.979,-2820.271,1501.145,0
1488767836.574,181.639,312.650,-2760.095,1690.869,0
1488767836.576,39.594,409.055,-2975.715,1314.354,0
1488767836.576,-28.543,341.423,-2951.123,789.661,0
1488767836.590,176.061,300.684,-2600.120,1609.636,0
1488767836.590,137.697,391.648,-2982.780,1077.987,0
1488767836.604,-80.436,381.864,-3491.630,393.009,0
1488767836.604,142.191,299.755,-3216.450,1220.513,0
1488767836.606,183.055,361.147,-3502.317,1534.838,0
1488767836.606,-9.606,445.746,-4455.049,649.507,0
1488767836.620,74.697,317.792,-3754.459,1532.091,0
1488767836.620,180.209,320.188,-3753.373,1686.891,0
1488767836.634,59.459,432.843,-3963.626,1315.747,0
1488767836.634,-20.837,352.712,-3912.780,789.304,0
1488767836.636,204.453,328.129,-3562.687,1633.297,0
1488767836.636,111.105,372.819,-4018.371,1036.465,0
1488767836.649,-51.472,405.332,-4437.367,422.283,0
1488767836.649,162.616,320.470,-4170.089,1238.903,0
1488767836.651,199.774,375.002,2385.261,1542.696,0
1488767836.665,-14.623,444.341,1408.489,633.964,0
1488767836.665,62.787,320.917,2129.080,1522.450,0
1488767836.679,220.964,350.733,2155.156,1714.432,0
1488767836.679,68.810,435.814,1913.709,1316.548,0
1488767836.681,-20.367,354.109,1985.920,790.602,0
1488767836.681,188.242,316.990,2299.879,1601.126,0
1488767836.695,155.200,415.493,1893.506,1074.541,0
1488767836.695,-55.685,404.281,1456.760,423.925,0
1488767836.709,172.705,335.366,1708.760,1222.605,0
1488767836.709,204.458,374.674,1398.853,1537.779,0
1488767836.711,8.387,453.237,440.650,642.590,0
1488767836.711,92.114,342.180,1178.613,1545.931,0
1488767836.725,208.094,347.706,2141.298,1698.659,0
1488767836.725,73.749,445.158,1906.410,1315.233,0
1488767836.739,-10.533,355.139,2015.456,806.236,0
1488767836.739,204.651,331.940,2329.756,1629.229,0
1488767836.741,153.699,415.918,1877.015,1062.612,0
1488767836.741,-38.424,427.323,1475.929,435.996,0
1488767836.755,123.968,293.053,1711.743,1213.444,0
1488767836.755,174.837,357.729,1379.374,1519.553,0
1488767836.769,4.062,457.418,436.328,645.950,0
1488767836.769,62.810,314.397,1182.452,1536.257,0
1488767836.771,218.657,351.715,2154.315,1711.945,0
1488767836.771,62.666,436.613,1882.974,1300.945,0
1488767836.785,-0.576,368.812,2035.455,811.482,0
1488767836.785,187.749,312.684,2302.045,1604.166,0
1488767836.799,144.231,413.745,1738.345,1004.911,0
1488767836.799,-42.988,395.910,1711.402,492.343,0
1488767836.801,139.895,338.891,2365.782,1161.521,0
1488767836.801,171.832,369.852,2079.238,1401.049,0
1488767836.815,-8.394,420.185,1736.649,676.002,0
1488767836.815,82.798,340.458,2108.845,1577.581,0
1488767836.829,186.825,345.980,2803.339,1590.826,0
1488767836.829,65.013,413.311,2077.383,1299.376,0
1488767836.831,17.707,376.054,2286.756,946.378,0
1488767836.831,203.222,349.677,2967.192,1541.308,0
1488767836.845,132.938,387.448,2794.098,981.554,0
1488767836.845,-20.573,405.005,1933.906,573.759,0
1488767836.859,146.946,332.470,2413.696,1196.824,0
1488767836.859,175.622,363.516,2160.213,1434.725,0
1488767836.861,-7.065,412.503,1848.073,730.490,0
1488767836.861,85.567,341.703,2099.370,1597.367,0
1488767836.875,208.428,356.283,2828.582,1620.332,0
1488767836.875,55.769,406.561,2110.667,1310.212,0
1488767836.889,5.056,372.378,2274.297,943.758,0
1488767836.889,182.389,330.686,2933.751,1524.361,0
1488767836.891,116.204,375.959,2780.726,968.024,0
1488767836.891,-25.003,408.887,1952.517,587.258,0
1488767836.905,139.984,329.878,2391.677,1184.391,0
1488767836.905,185.920,374.923,2148.512,1433.788,0
1488767836.919,-8.708,414.190,1835.775,715.899,0
1488767836.919,76.713,346.419,2082.457,1593.214,0
1488767836.921,212.092,362.069,2797.243,2573.275,0
1488767836.921,69.848,415.791,2089.516,2280.987,0
1488767836.935,-3.469,360.481,2260.064,1910.419,0
1488767836.935,180.974,337.287,2902.951,2491.935,0
1488767836.949,143.089,392.235,2767.320,1950.494,0
1488767836.949,-19.077,411.501,1936.026,1549.936,0
1488767836.951,156.928,336.056,2398.295,2167.032,0
1488767836.951,195.589,374.628,2136.603,2409.496,0
1488767836.965,-2.536,427.710,1795.700,1684.415,0
1488767836.965,85.302,355.814,2103.630,2571.521,0
1488767836.979,199.116,359.399,2787.431,2576.378,0
1488767836.979,72.554,421.479,2046.913,2270.443,0
1488767836.981,47.370,406.407,2313.057,1947.805,0
1488767836.981,205.064,352.448,2958.341,2525.726,0
1488767836.995,145.577,403.814,2745.230,1953.312,0
1488767836.995,-12.269,418.345,1931.230,1559.628,0
1488767837.009,157.854,352.414,2451.706,2195.484,0
1488767837.009,171.734,366.632,2116.776,2392.380,0
1488767837.011,13.488,435.997,1782.197,1686.960,0
1488767837.011,102.862,369.270,2181.310,2611.204,0
1488767837.025,193.961,352.530,2807.939,3557.475,0
1488767837.025,91.334,441.000,2024.165,3259.210,0
1488767837.039,33.018,398.406,2330.924,2922.257,0
1488767837.039,190.866,343.874,2983.550,3506.412,0
1488767837.041,149.948,418.753,2732.823,2939.260,0
1488767837.041,-1.298,432.016,1943.035,2545.123,0
1488767837.055,164.890,353.651,2495.577,3189.869,0
1488767837.055,184.590,380.426,2117.144,3386.530,0
1488767837.069,17.166,440.162,1766.708,2668.383,0
1488767837.069,84.079,352.876,2202.898,3584.503,0
1488767837.071,207.075,366.376,2814.707,4550.858,0
1488767837.071,44.209,420.557,1949.728,4189.774,0
1488767837.085,19.698,378.012,2363.490,3901.069,0
1488767837.085,187.090,340.153,2980.437,4485.165,0
1488767837.099,132.551,390.049,2680.497,3890.618,0
1488767837.099,-46.227,390.694,1928.264,3495.277,0
1488767837.101,149.936,328.021,2493.118,4162.005,0
1488767837.101,199.309,383.583,2085.506,4357.638,0
1488767837.115,18.885,451.561,1726.596,3625.130,0
1488767837.115,98.401,352.312,2235.520,4570.474,0
1488767837.129,205.109,356.958,2789.786,5505.570,0
1488767837.129,67.784,435.251,1895.759,5151.906,0
1488767837.131,25.777,381.303,2382.625,4876.968,0
1488767837.131,205.283,348.527,3049.451,5501.488,0
1488767837.145,137.097,399.537,2617.769,4864.837,0
1488767837.145,-33.416,407.509,1810.325,4428.013,0
1488767837.159,158.065,336.279,2615.243,5177.308,0
1488767837.159,162.353,354.703,2131.696,5364.163,0
1488767837.161,-11.324,435.360,1457.811,4508.821,0
1488767837.161,107.752,360.371,2370.749,4626.899,0
1488767837.175,203.929,353.101,2965.092,5604.997,0
1488767837.175,74.241,439.812,2732.500,5144.114,0
1488767837.189,-3.041,360.784,3311.834,4847.342,0
1488767837.189,204.148,340.578,4171.235,5554.503,0
1488767837.191,147.103,408.044,3597.097,4880.958,0
1488767837.191,-33.713,405.979,2728.775,4394.879,0
1488767837.205,136.267,319.943,3662.046,5185.938,0
1488767837.205,181.282,371.806,3116.163,5352.114,0
1488767837.219,1.143,443.760,2421.985,4477.704,0
1488767837.219,91.635,345.827,3316.605,4576.760,0
1488767837.221,207.076,358.092,3890.427,4588.423,0
1488767837.221,84.112,444.635,3715.684,4155.593,0
1488767837.235,-2.048,357.619,4343.256,3879.349,0
1488767837.235,193.151,334.790,5130.488,4560.136,0
1488767837.249,142.217,409.463,4558.709,3888.877,0
1488767837.249,-38.289,407.481,3774.225,3449.360,0
1488767837.251,153.745,329.399,4667.864,4249.012,0
1488767837.251,187.100,368.416,4093.442,4408.210,0
1488767837.265,-2.427,428.570,3478.950,3557.783,0
1488767837.265,75.017,327.821,4348.632,3632.740,0
1488767837.279,186.599,336.563,4846.672,4584.304,0
1488767837.279,55.399,414.736,4676.623,4138.220,0
1488767837.281,7.667,363.129,5368.787,3897.591,0
1488767837.281,185.280,326.445,6089.149,4550.919,0
1488767837.295,114.525,382.545,5486.184,3849.815,0
1488767837.295,-35.542,398.965,4772.705,3448.618,0
1488767837.309,147.262,323.198,5634.858,4231.380,0
1488767837.309,169.008,355.188,5020.595,4363.330,0
1488767837.311,-10.526,429.700,4442.743,3533.846,0
1488767837.311,77.083,327.802,5321.064,3622.899,0
1488767837.325,206.313,346.029,5814.138,4582.757,0
1488767837.325,65.783,427.672,5637.820,4128.363,0
1488767837.339,1.101,358.727,6343.837,3886.986,0
1488767837.339,207.310,338.640,7060.093,4561.898,0
1488767837.340,139.700,404.008,6462.296,3862.286,0
1488767837.340,-32.335,406.550,5780.295,3451.028,0
1488767837.355,155.110,331.437,6616.086,4233.122,0
1488767837.355,182.343,373.289,5989.967,4364.282,0
1488767837.369,0.280,440.968,5427.232,3535.206,0
1488767837.369,97.725,351.270,6347.156,3652.367,0
1488767837.371,206.039,364.964,6783.615,4581.529,0
1488767837.371,69.581,443.855,6598.161,4124.079,0
1488767837.385,42.309,400.521,7396.564,3937.293,0
1488767837.385,195.890,334.530,8045.338,4557.408,0
1488767837.399,142.421,415.520,7413.066,3850.627,0
1488767837.399,-7.298,428.009,6787.823,3466.532,0
1488767837.401,165.300,337.339,7650.881,4261.640,0
1488767837.401,174.730,374.011,6942.092,4361.961,0
1488767837.415,-12.766,450.209,6162.592,3455.817,0
1488767837.415,103.846,315.019,6816.003,3746.469,0
1488767837.429,228.072,355.704,7241.523,3792.318,0
1488767837.429,71.965,473.161,6308.668,3129.118,0
1488767837.431,-4.546,351.622,7225.858,2816.586,0
1488767837.431,225.265,337.975,7478.086,3712.432,0
1488767837.445,158.871,437.952,7340.967,2915.964,0
1488767837.445,-59.218,411.021,7241.381,2287.646,0
1488767837.459,171.510,315.616,7995.608,2359.308,0
1488767837.459,194.976,384.510,7106.574,2486.265,0
1488767837.461,-22.507,469.393,6806.380,2391.189,0
1488767837.461,85.982,314.045,7530.894,2649.540,0
1488767837.475,219.424,351.427,8082.748,2738.835,0
1488767837.475,57.924,466.401,7186.088,2081.877,0
1488767837.489,-12.398,352.211,7208.365,1815.663,0
1488767837.489,204.002,315.866,7472.875,2714.127,0
1488767837.491,136.942,422.568,7313.529,1912.903,0
1488767837.491,-50.711,412.182,7252.842,1305.674,0
1488767837.505,169.444,305.449,8037.130,1397.423,0
1488767837.505,200.827,389.497,7129.528,1525.183,0
1488767837.519,-44.211,453.066,6782.293,1400.940,0
1488767837.519,76.099,296.855,7573.732,1695.388,0
1488767837.521,229.493,354.200,8124.323,1791.951,0
1488767837.521,67.081,479.384,7172.211,1113.690,0
1488767837.535,-1.935,357.310,7223.480,846.837,0
1488767837.535,220.792,332.911,7489.089,1745.761,0
1488767837.549,157.842,441.961,7330.334,949.839,0
1488767837.549,-50.833,416.851,7254.725,328.601,0
1488767837.551,164.961,302.481,8051.206,424.045,0
1488767837.551,224.345,403.460,7156.850,571.197,0
1488767837.565,-19.504,476.342,6787.961,426.837,0
1488767837.565,94.543,322.310,7595.725,724.628,0
1488767837.579,260.865,386.915,8155.440,841.756,0
1488767837.579,80.112,485.534,7178.137,143.932,0
1488767837.581,9.144,365.289,7251.796,-113.474,0
1488767837.581,229.572,344.106,7519.097,791.546,0
1488767837.595,160.066,447.154,7324.341,-24.201,0
1488767837.595,-36.941,427.770,7253.332,-655.993,0
1488767837.609,180.155,315.483,8086.497,-545.691,0
1488767837.609,221.632,406.065,7155.812,-416.745,0
1488767837.611,-7.770,483.464,6758.287,-568.678,0
1488767837.611,88.613,315.734,7598.158,-269.383,0
1488767837.625,249.816,377.017,8157.959,-153.874,0
1488767837.625,77.739,487.889,8123.332,-855.775,0
1488767837.639,7.212,367.041,8228.940,-1107.298,0
1488767837.639,222.655,336.871,8518.714,-189.690,0
1488767837.641,153.639,443.778,8280.669,-1018.766,0
1488767837.641,-51.809,419.357,8205.272,-1655.390,0
1488767837.654,195.356,324.973,9089.226,-1507.501,0
1488767837.654,214.296,395.924,8138.510,-1393.118,0
1488767837.656,-23.468,467.691,-3078.932,-580.522,0
1488767837.670,98.556,318.825,-2174.623,-249.876,0
1488767837.670,246.127,372.068,-1635.544,-147.442,0
1488767837.684,77.397,489.618,-1693.490,-848.034,0
1488767837.684,11.388,367.982,-1565.516,-1101.909,0
1488767837.686,236.061,338.108,-1252.896,-169.879,0
1488767837.686,162.519,444.962,-1525.079,-1010.975,0
1488767837.700,-34.656,428.716,-1584.192,-1644.555,0
1488767837.700,197.527,326.205,-673.311,-1494.830,0
1488767837.714,215.166,398.735,-684.097,-1391.671,0
1488767837.714,-31.357,466.725,-1132.975,-1575.696,0
1488767837.716,98.685,319.185,-187.096,-1227.929,0
1488767837.716,226.647,358.542,328.889,-1140.832,0
1488767837.730,59.687,478.879,236.386,-1855.639,0
1488767837.730,8.248,358.634,423.286,-2073.021,0
1488767837.744,229.334,331.108,712.513,-1150.752,0
1488767837.744,145.699,438.154,418.377,-1996.370,0
1488767837.746,-43.398,426.743,372.889,-2627.145,0
1488767837.746,188.347,315.425,1294.634,-2476.365,0
1488767837.760,203.507,385.741,1263.682,-2382.997,0
1488767837.760,-28.027,470.964,827.049,-2555.440,0
1488767837.774,107.154,326.020,1796.702,-2189.919,0
1488767837.774,223.186,354.127,2282.266,-2116.970,0
1488767837.776,54.793,472.849,2181.700,-2841.639,0
1488767837.776,19.728,370.095,2407.495,-3041.743,0
1488767837.790,222.507,329.322,2670.861,-2134.127,0
1488767837.790,152.264,445.089,2366.927,-2987.049,0
1488767837.804,-59.234,412.582,2342.778,-3616.133,0
1488767837.804,182.410,316.687,3248.329,-3456.281,0
1488767837.806,210.461,390.100,3215.096,-3363.802,0
1488767837.806,-21.772,468.882,2801.187,-3524.487,0
1488767837.820,82.143,295.875,3749.321,-3189.465,0
1488767837.820,209.616,345.748,4219.072,-3112.574,0
1488767837.834,59.590,472.600,4146.197,-3825.833,0
1488767837.834,10.717,358.181,4393.529,-4013.449,0
1488767837.836,233.706,335.462,4636.299,-3100.829,0
1488767837.836,130.777,423.115,4297.435,-3984.975,0
1488767837.850,-62.692,409.057,3351.980,-4585.438,0
1488767837.850,184.932,315.541,4232.452,-4433.410,0
1488767837.864,213.111,397.854,4183.684,-4345.045,0
1488767837.864,-35.828,459.718,3786.562,-4506.699,0
1488767837.866,95.399,307.089,4750.269,-4152.458,0
1488767837.866,214.865,346.850,5182.940,-4095.519,0
1488767837.880,48.162,463.749,5109.369,-4816.198,0
1488767837.880,4.529,362.652,5392.301,-4996.476,0
1488767837.894,222.747,325.833,5574.096,-4107.904,0
1488767837.894,144.096,430.096,5272.701,-4967.800,0
1488767837.896,-44.312,412.713,4378.334,-5539.661,0
1488767837.897,171.381,301.941,5184.640,-5424.717,0
1488767837.910,194.129,382.493,5112.972,-5352.057,0
1488767837.910,-17.710,468.781,4797.534,-5470.660,0
1488767837.924,103.917,318.097,5742.889,-5119.799,0
1488767837.924,224.673,351.317,6136.972,-5086.120,0
1488767837.926,54.219,467.353,6083.203,-5799.681,0
1488767837.926,9.026,352.695,6395.546,-5964.469,0
1488767837.940,223.538,329.807,6540.892,-5091.129,0
1488767837.940,144.110,431.695,6224.500,-5961.737,0
1488767837.954,-46.289,408.350,5383.711,-6521.779,0
1488767837.954,179.607,311.651,6159.686,-6406.058,0
1488767837.956,214.842,395.408,6092.850,-6318.306,0
1488767837.956,-35.342,458.188,5794.197,-6466.994,0
1488767837.970,84.587,310.780,6710.302,-6112.314,0
1488767837.970,210.123,350.133,7057.131,-6081.821,0
1488767837.984,48.211,454.336,6140.250,-6786.250,0
1488767837.984,-9.267,343.998,6454.485,-6912.722,0
1488767837.986,199.503,334.289,7211.978,-6167.145,0
1488767837.986,119.189,414.231,7086.029,-7029.682,0
1488767838.000,-61.695,390.677,6585.466,-7450.062,0
1488767838.000,162.921,320.521,6908.999,-7441.791,0
1488767838.014,184.443,384.482,6883.534,-7402.176,0
1488767838.014,-2.934,463.665,6103.817,-8338.752,0
1488767838.016,98.015,327.866,6664.482,-8033.286,0
1488767838.016,210.491,358.681,6859.726,-7128.973,0
1488767838.030,47.035,447.842,6207.286,-7760.055,0
1488767838.030,27.905,366.862,6636.721,-7806.003,0
1488767838.044,221.911,342.874,7396.648,-7072.737,0
1488767838.044,127.463,423.983,7146.281,-7953.342,0
1488767838.046,-46.726,411.477,6450.300,-8447.937,0
1488767838.046,181.825,313.121,7145.449,-8359.044,0
1488767838.060,193.372,377.431,7030.911,-8315.256,-1
1488767838.060,-26.972,468.514,6814.815,-8410.649,0
1488767838.074,92.168,312.388,7735.659,-8052.170,0
1488767838.074,216.544,357.721,8051.742,-8043.002,0
1488767838.076,52.048,469.782,8033.634,-8749.480,0
1488767838.076,4.297,349.888,8423.053,-8885.553,0
1488767838.090,216.209,326.544,8466.538,-8043.733,0
1488767838.090,141.415,436.181,8135.456,-8926.480,0
1488767838.104,-34.476,426.397,7411.745,-9439.625,0
1488767838.104,182.335,318.535,8127.847,-9339.929,0
1488767838.106,206.384,399.154,7999.206,-9293.652,0
1488767838.106,-28.496,468.280,7761.408,-9398.542,0
1488767838.120,104.687,317.633,8733.803,-9021.124,0
1488767838.120,224.074,357.207,9039.941,-9015.782,0
1488767838.134,69.186,481.852,9002.094,-9721.295,0
1488767838.134,29.932,368.462,9442.248,-9844.106,0
1488767838.136,219.835,329.949,9452.184,-9014.665,0
1488767838.136,150.658,446.695,9102.223,-9900.633,0
1488767838.150,-44.194,410.643,8389.016,-10418.007,0
1488767838.150,190.871,318.077,9129.611,-10307.285,0
1488767838.164,197.751,382.839,8967.004,-10280.363,0
1488767838.164,-25.035,469.206,8732.143,-10387.807,0
1488767838.166,105.572,315.391,8757.853,-9993.478,0
1488767838.166,230.348,355.881,9030.998,-9016.513,0
1488767838.180,42.769,464.045,8953.480,-9754.208,0
1488767838.180,20.850,361.332,9454.431,-9841.116,0
1488767838.194,218.352,329.046,9458.267,-9013.878,0
1488767838.194,123.033,430.115,9062.528,-9927.338,0
1488767838.196,-56.254,402.252,8385.518,-10430.807,0
1488767838.196,198.203,322.761,9139.621,-10304.703,0
1488767838.210,203.348,393.690,8960.828,-10276.966,0
1488767838.210,-29.147,466.897,8720.659,-10397.350,0
1488767838.224,93.109,305.539,8752.974,-9998.843,0
1488767838.224,208.075,347.678,9014.544,-9029.324,0
1488767838.226,55.236,469.313,8951.093,-9754.057,0
1488767838.226,24.588,355.347,9477.197,-9830.283,0
1488767838.240,243.426,352.059,10454.686,-8992.791,0
1488767838.240,131.042,428.056,10033.581,-9925.597,0
1488767838.254,-42.523,417.408,9384.308,-10412.472,0
1488767838.254,177.774,305.656,10105.550,-10313.587,0
1488767838.257,209.805,401.273,9933.963,-10268.287,0
1488767838.257,-21.074,470.126,9702.725,-10391.158,0
1488767838.284,108.152,321.454,9765.740,-9978.323,0
1488767838.284,236.208,365.945,10006.472,-9012.463,0
1488767838.284,48.667,468.817,9909.496,-9766.015,0
1488767838.284,9.963,351.395,10453.201,-9848.330,0
1488767838.287,228.970,337.109,11417.405,-9009.264,0
1488767838.287,141.493,441.933,11007.303,-9922.468,0
1488767838.300,-37.797,419.557,10375.301,-10412.594,0
1488767838.300,186.860,319.990,11104.901,-10299.183,0
1488767838.314,196.866,394.172,10891.700,-10279.875,0
1488767838.314,-27.842,466.627,10679.499,-10387.962,0
1488767838.316,122.758,326.976,10765.717,-9969.294,0
1488767838.316,220.402,350.311,10967.291,-9027.581,0
1488767838.330,40.236,462.095,10874.019,-9771.638,0
1488767838.330,11.764,357.691,11466.342,-9821.442,0
1488767838.344,213.541,326.467,12391.490,-9011.521,0
1488767838.344,146.851,443.191,11971.967,-9930.024,0
1488767838.346,-31.673,422.233,11379.372,-10408.814,0
1488767838.346,215.394,343.366,12119.396,-10269.800,0
1488767838.360,217.561,411.770,11875.644,-10272.845,0
1488767838.360,-17.480,475.691,11661.942,-10391.526,0
1488767838.374,117.783,337.790,11764.062,-9958.148,0
1488767838.374,239.683,378.863,11966.722,-9002.946,0
1488767838.376,52.044,469.195,11847.479,-9765.520,0
1488767838.376,14.006,357.480,12456.104,-9828.623,0
1488767838.390,224.261,346.829,13378.287,-9006.318,0
1488767838.390,151.434,458.011,12944.545,-9925.746,0
1488767838.404,-43.093,420.597,12360.911,-10416.014,0
1488767838.404,183.165,316.377,13072.582,-10303.164,0
1488767838.406,197.510,392.179,12827.940,-10294.310,0
1488767838.406,-17.680,471.156,12648.989,-10392.512,0
1488767838.420,119.007,329.354,12758.106,-9951.830,0
1488767838.420,221.116,363.131,12916.883,-9025.380,0
1488767838.434,45.599,467.525,12810.337,-9784.674,0
1488767838.434,13.791,356.113,13455.774,-9822.387,0
1488767838.436,231.859,345.178,14357.425,-9002.973,0
1488767838.436,140.583,441.164,13901.374,-9942.129,0
1488767838.450,-42.489,411.514,13350.977,-10413.846,0
1488767838.450,187.124,316.670,14050.661,-10299.362,0
1488767838.464,197.945,392.622,13800.002,-10301.703,0
1488767838.464,-36.528,465.668,13612.218,-10411.556,0
1488767838.466,112.902,327.105,13745.140,-9951.599,0
1488767838.466,228.078,374.439,13894.569,-9020.907,0
1488767838.480,64.409,488.762,13798.465,-9766.288,0
1488767838.480,22.574,362.260,14455.533,-9812.592,0
1488767838.494,220.286,332.232,15316.325,-9018.516,0
1488767838.494,132.424,434.520,14852.361,-9952.279,0
1488767838.496,-37.322,414.590,14349.251,-10392.648,0
1488767838.496,199.946,332.432,15055.854,-10275.854,0
1488767838.510,204.133,402.254,14772.393,-10292.466,0
1488767838.510,-26.731,464.630,14592.155,-10410.942,0
1488767838.524,108.184,320.831,14733.062,-9956.587,0
1488767838.524,229.942,362.413,14871.122,-9020.104,0
1488767838.526,42.741,468.632,14748.782,-9793.062,0
1488767838.526,10.122,353.181,15450.906,-9815.396,0
1488767838.540,213.518,325.745,16297.404,-9019.354,0
1488767838.540,140.508,441.557,15832.194,-9953.079,0
1488767838.554,-42.190,409.053,15346.793,-10403.876,0
1488767838.554,183.773,312.366,16025.074,-10290.604,0
1488767838.556,199.195,393.277,15733.807,-10304.340,0
1488767838.556,-33.536,455.948,15578.197,-10413.365,0
1488767838.570,115.079,322.078,15741.482,-9935.977,0
1488767838.570,223.287,362.920,15850.765,-9019.640,0
1488767838.584,43.046,461.416,15718.106,-9791.196,0
1488767838.584,19.365,357.884,16461.645,-9797.733,0
1488767838.586,227.721,341.630,17298.768,-8997.913,0
1488767838.586,135.214,437.598,16800.393,-9952.817,0
1488767838.600,-48.965,405.944,16347.109,-10394.604,0
1488767838.600,193.428,323.685,17031.781,-10268.411,0
1488767838.614,194.836,393.959,16710.270,-10300.693,0
1488767838.614,-48.389,444.296,16554.055,-10416.593,0
1488767838.616,101.594,314.858,16728.508,-9938.385,0
1488767838.616,226.845,355.999,16827.928,-9021.906,0
1488767838.630,36.746,454.630,16682.588,-9809.548,0
1488767838.630,11.102,340.634,17458.885,-9803.169,0
1488767838.644,213.975,328.823,18263.910,-9011.917,0
1488767838.644,134.517,437.095,17760.117,-9969.088,0
1488767838.646,-40.978,403.855,17340.328,-10395.956,0
1488767838.646,201.698,321.188,18021.648,-10260.697,0
1488767838.659,192.797,388.923,17674.467,-10304.185,0
1488767838.659,-36.361,452.788,17539.951,-10420.159,0
1488767838.661,105.095,306.337,2035.831,856.228,0
1488767838.675,219.534,361.491,2104.786,1751.113,0
1488767838.675,31.926,462.755,1956.046,962.600,0
1488767838.689,19.434,359.287,2771.806,998.692,0
1488767838.689,207.291,325.762,3546.248,1762.770,0
1488767838.691,133.447,441.544,3032.359,814.230,0
1488767838.691,-38.783,414.527,2641.839,393.144,0
1488767838.705,208.931,331.927,3320.745,529.345,0
1488767838.705,211.218,404.913,2965.615,479.167,0
1488767838.719,-21.777,469.301,2840.216,376.477,0
1488767838.719,121.706,329.478,3032.520,866.451,0
1488767838.721,221.933,363.670,3073.238,1753.456,0
1488767838.721,52.602,471.882,2938.348,979.117,0
1488767838.735,23.947,350.795,3772.022,1012.576,0
1488767838.735,223.592,328.232,4530.920,1777.126,0
1488767838.749,122.674,433.460,3986.552,797.549,0
1488767838.749,-60.106,396.603,3615.812,381.114,0
1488767838.751,187.881,315.466,4283.457,517.129,0
1488767838.751,181.535,383.347,3907.384,456.019,0
1488767838.765,-37.526,455.634,3803.613,359.152,0
1488767838.765,109.398,317.602,4022.952,860.742,0
1488767838.779,226.488,365.781,4056.759,1756.988,0
1488767838.779,30.802,457.193,3890.296,959.582,0
1488767838.781,17.495,346.993,4767.544,1012.668,0
1488767838.781,229.415,342.270,5517.104,1789.940,0
1488767838.795,128.011,432.523,4961.029,1782.416,0
1488767838.795,-34.768,410.177,4633.347,1385.650,0
1488767838.809,194.643,317.368,5278.530,1507.946,0
1488767838.809,197.282,393.024,4892.793,1444.824,0
1488767838.811,-37.502,456.066,4788.966,1345.754,0
1488767838.811,112.414,314.114,5013.560,1855.273,0
1488767838.825,215.936,353.026,5015.802,2724.476,0
1488767838.825,46.051,468.767,4878.080,1948.566,0
1488767838.839,12.452,343.487,5764.689,1991.921,0
1488767838.839,217.468,331.841,6485.624,2755.068,0
1488767838.841,116.139,430.367,5917.952,2743.916,0
1488767838.841,-42.223,412.561,5622.889,2364.649,0
1488767838.855,182.060,318.200,6255.461,2475.262,0
1488767838.855,187.519,395.756,5858.602,2415.461,0
1488767838.869,-43.461,450.065,5765.886,2308.204,0
1488767838.869,119.073,319.445,6006.326,2838.012,0
1488767838.871,211.491,355.189,6966.812,3697.622,0
1488767838.871,46.019,474.397,6821.857,2916.548,0
1488767838.885,23.685,350.984,7748.977,2986.310,0
1488767838.885,222.889,333.803,8446.193,3737.620,0
1488767838.899,123.879,437.789,7865.230,3723.461,0
1488767838.899,-51.979,405.087,7582.878,3336.172,0
1488767838.901,190.881,313.299,8216.696,3461.999,0
1488767838.901,200.958,393.772,7812.821,3400.313,0
1488767838.915,-45.303,449.091,7725.165,3291.916,0
1488767838.915,132.953,337.223,7986.739,3835.190,0
1488767838.929,218.928,359.814,8933.766,4686.943,0
1488767838.929,33.769,462.555,8760.336,3884.114,0
1488767838.931,20.119,348.155,9723.357,3970.882,0
1488767838.931,217.262,331.725,10391.598,4711.451,0
1488767838.945,115.454,428.434,9800.615,4689.161,0
1488767838.945,-40.862,415.856,9570.188,4331.642,0
1488767838.959,199.054,327.135,10195.572,4455.707,0
1488767838.959,184.749,395.745,9748.225,4364.210,0
1488767838.961,-46.822,453.622,9678.165,4264.606,0
1488767838.961,103.588,301.771,9935.633,4795.655,0
1488767838.975,219.859,355.186,10874.693,5659.113,0
1488767838.975,41.002,465.402,10709.446,4857.971,0
1488767838.989,17.834,344.645,10720.918,4953.995,0
1488767838.989,225.688,340.041,11385.915,5707.014,0
1488767838.991,122.788,433.365,10772.396,5672.334,0
1488767838.991,-40.877,414.231,10561.570,5311.123,0
1488767839.005,175.355,314.110,11158.445,5419.799,0
1488767839.005,186.999,390.492,10720.417,5342.604,0
1488767839.019,-41.603,449.719,10672.016,5255.135,0
1488767839.019,117.375,317.439,10949.158,5798.062,0
1488767839.021,221.466,366.852,11862.522,6650.327,0
1488767839.021,35.353,471.968,11678.669,5838.926,0
1488767839.049,14.122,345.383,11715.864,5943.780,0
1488767839.049,224.123,338.581,12359.734,6683.638,0
1488767839.049,130.139,442.683,11747.199,6657.351,0
1488767839.049,-29.854,416.099,11564.654,6309.839,0
1488767839.052,190.286,319.644,12156.611,6420.284,0
1488767839.052,187.145,395.865,11689.558,6322.411,0
1488767839.065,-36.554,460.398,11664.254,6235.956,0
1488767839.065,110.168,314.812,11938.240,6785.562,0
1488767839.079,202.673,349.677,12825.687,7619.359,0
1488767839.079,34.931,471.585,12659.632,6822.686,0
1488767839.081,24.945,351.384,12727.521,6936.261,0
1488767839.081,227.287,347.805,13345.922,7676.614,0
1488767839.095,124.608,436.304,12715.641,7633.934,0
1488767839.095,-30.699,408.532,12557.892,7292.077,0
1488767839.109,189.355,314.376,13139.320,7405.054,0
1488767839.109,204.503,402.052,12677.226,7321.418,0
1488767839.111,-23.477,469.713,12655.789,7239.571,0
1488767839.111,122.414,327.443,12939.439,7785.243,0
1488767839.125,218.446,368.307,13811.784,8607.618,0
1488767839.125,39.824,474.777,13630.998,7799.336,0
1488767839.139,29.110,356.813,13726.296,7926.487,0
1488767839.139,231.174,345.477,14326.186,8650.530,0
1488767839.141,132.243,447.881,13679.220,8608.012,0
1488767839.141,-31.950,415.699,13551.592,8274.050,0
1488767839.155,191.833,317.755,14125.422,8386.989,0
1488767839.155,190.426,401.792,13627.622,8279.512,0
1488767839.169,-38.280,452.242,13616.204,8193.883,0
1488767839.169,124.479,325.242,13924.198,8758.438,0
1488767839.171,220.387,359.763,14774.171,9577.077,0
1488767839.171,45.438,475.414,14592.711,8772.613,0
1488767839.185,28.047,351.870,14719.589,8910.005,0
1488767839.185,225.781,336.589,15300.315,9624.918,0
1488767839.199,131.502,434.995,14645.474,9576.476,0
1488767839.199,-39.665,403.969,14535.229,9245.905,0
1488767839.201,194.978,325.487,15109.642,9367.851,0
1488767839.201,186.365,385.694,14593.181,9244.654,0
1488767839.215,-39.637,455.127,13621.401,9169.666,0
1488767839.215,112.511,305.000,13941.886,9744.969,0
1488767839.229,216.284,350.550,14772.879,10559.345,0
1488767839.229,42.865,475.079,14584.433,9740.247,0
1488767839.231,33.852,355.915,14732.557,9887.526,0
1488767839.231,224.461,345.387,15291.805,10605.922,0
1488767839.245,116.842,438.019,14618.601,10539.561,0
1488767839.245,-38.929,407.561,14546.573,10226.838,0
1488767839.259,209.889,338.717,15123.152,10355.893,0
1488767839.259,195.737,399.447,14591.952,10228.254,0
1488767839.261,-29.884,463.465,13620.703,10146.249,0
1488767839.261,129.513,320.216,13958.557,10733.942,0
1488767839.275,206.549,348.906,14756.874,11526.320,0
1488767839.275,12.729,453.592,14547.795,10690.217,0
1488767839.289,16.504,338.268,14737.776,10863.952,0
1488767839.289,218.113,332.898,15287.005,11580.015,0
1488767839.291,126.515,442.434,14616.242,11530.109,0
1488767839.291,-46.665,398.984,14563.099,11210.104,0
1488767839.305,183.105,313.295,15112.679,11327.177,0
1488767839.305,197.323,400.654,14583.535,11208.382,0
1488767839.319,-28.148,462.274,13631.536,11140.791,0
1488767839.319,116.457,310.700,13954.804,11708.588,0
1488767839.321,223.839,363.337,14762.366,12517.923,0
1488767839.321,38.497,465.950,14565.127,11700.149,0
1488767839.335,23.769,336.535,14765.371,11862.025,0
1488767839.335,220.273,335.836,15284.527,12563.662,0
1488767839.349,121.244,438.045,14585.824,12489.990,0
1488767839.349,-53.735,388.001,14559.843,12182.906,0
1488767839.351,188.373,314.692,15113.174,12307.627,0
1488767839.351,188.891,398.677,14566.939,12186.285,0
1488767839.365,-52.632,439.103,13613.804,12097.784,0
1488767839.365,115.916,310.197,13966.620,12695.374,0
1488767839.379,211.132,354.243,14747.539,13490.785,0
1488767839.379,38.240,469.513,14542.062,12668.706,0
1488767839.381,25.846,345.243,14784.103,12851.541,0
1488767839.381,220.237,339.282,15285.856,13549.897,0
1488767839.395,129.526,448.111,14591.282,13482.184,0
1488767839.395,-42.697,403.894,14587.805,13184.050,0
1488767839.409,186.913,314.144,15114.437,13293.216,0
1488767839.409,190.823,395.347,14549.012,13158.657,0
1488767839.411,-34.798,456.967,13630.717,13091.242,0
1488767839.411,116.206,314.305,13979.277,13681.419,0
1488767839.425,220.611,367.881,14751.247,14479.328,0
1488767839.425,40.785,470.506,14534.688,13644.680,0
1488767839.439,29.749,347.833,14805.313,13842.014,0
1488767839.439,218.788,328.640,15275.544,14521.484,0
1488767839.441,120.836,438.097,14561.788,14449.559,0
1488767839.441,-33.472,402.617,13616.805,14167.578,0
1488767839.455,181.660,310.436,14139.144,14273.591,0
1488767839.455,180.815,390.307,13552.689,14127.742,0
1488767839.469,-36.088,456.247,12649.725,14069.561,0
1488767839.469,117.141,314.479,13010.582,14659.943,0
1488767839.471,215.035,357.478,13756.028,15445.762,0
1488767839.471,23.851,461.479,13538.111,14613.268,0
1488767839.485,31.928,347.495,13838.651,14827.872,0
1488767839.485,227.997,342.569,14305.150,15514.307,0
1488767839.499,112.670,434.614,13568.816,15421.153,0
1488767839.499,-38.803,398.991,12651.759,15147.598,0
1488767839.501,186.984,309.989,13166.416,15260.512,0
1488767839.501,194.499,402.011,12569.651,15115.770,0
1488767839.515,-28.747,467.278,11678.393,15056.328,0
1488767839.515,123.473,313.250,12043.001,15652.776,0
1488767839.529,223.012,361.201,12774.448,16438.658,0
1488767839.529,27.789,460.516,12541.243,15585.542,0
1488767839.531,30.301,351.106,12867.536,15805.843,0
1488767839.531,211.493,333.075,13308.237,16482.674,0
1488767839.545,122.371,441.916,12580.564,16405.463,0
1488767839.545,-29.427,405.646,11684.346,16131.189,0
1488767839.559,190.346,307.882,12185.483,16238.452,0
1488767839.559,187.792,398.782,11578.352,16088.313,0
1488767839.561,-32.713,461.169,10690.724,16025.872,0
1488767839.561,115.079,314.771,11067.274,16632.287,0
1488767839.575,213.623,360.366,11786.439,17412.434,0
1488767839.575,30.712,464.950,11556.496,16563.270,0
1488767839.589,27.627,345.015,11910.913,16791.693,0
1488767839.589,223.251,338.777,12337.518,17472.264,0
1488767839.591,121.130,438.974,11581.385,17377.555,0
1488767839.591,-29.895,407.226,10715.082,17118.559,0
1488767839.605,199.972,329.769,11217.195,17230.256,0
1488767839.605,188.397,402.262,10588.320,17070.963,0
1488767839.619,-42.597,445.620,9706.538,16996.924,0
1488767839.619,126.459,321.227,10103.402,17626.549,0
1488767839.621,219.614,374.830,10796.550,18388.717,0
1488767839.621,47.979,482.757,10578.072,17553.484,0
1488767839.635,32.380,345.058,10944.144,17779.523,0
1488767839.635,211.003,329.642,11337.250,18440.492,0
1488767839.649,117.296,441.800,10591.806,18355.518,0
1488767839.649,-47.472,399.793,9732.833,18084.281,0
1488767839.651,190.974,322.938,10234.303,18208.268,0
1488767839.651,186.307,397.948,9586.541,18037.498,0
1488767839.664,-43.334,451.557,8733.010,17976.496,0
1488767839.664,122.327,309.830,9133.144,18604.752,0
1488767839.666,215.684,361.734,2945.201,1716.569,0
1488767839.680,25.016,467.048,2708.619,865.155,0
1488767839.680,21.489,333.994,3112.294,1112.573,0
1488767839.694,216.471,327.939,3500.206,1779.250,0
1488767839.694,137.054,463.074,2737.565,1683.363,0
1488767839.696,-35.067,407.391,1921.452,1442.943,0
1488767839.696,206.184,335.424,2410.207,1559.753,0
1488767839.710,200.638,410.048,1748.218,1390.635,0
1488767839.710,-22.772,462.566,897.698,1327.670,0
1488767839.724,126.635,320.285,1301.335,1953.308,0
1488767839.724,214.726,365.128,1963.273,2700.572,0
1488767839.726,28.214,468.191,1721.444,1845.366,85395993
1488767839.726,26.030,341.898,2145.427,2101.872,0
1488767839.740,235.616,359.081,2532.830,2775.127,0
1488767839.740,119.372,438.567,1734.339,2646.044,0
1488767839.754,-49.971,388.852,934.128,2403.710,0
1488767839.754,180.592,305.228,1403.659,2512.001,0
1488767839.756,179.874,396.899,738.914,2341.574,0
1488767839.756,-41.849,453.612,-90.393,2285.146,0
1488767839.770,135.914,328.431,341.084,2945.984,0
1488767839.770,222.819,368.001,976.147,3679.575,0
1488767839.784,27.761,467.476,732.168,2816.893,0
1488767839.784,36.245,352.362,1194.163,3094.634,0
1488767839.786,224.716,344.789,1538.494,3749.231,0
1488767839.786,115.496,440.065,741.835,3630.178,0
1488767839.800,-32.930,401.663,-17.226,3407.591,0
1488767839.800,193.362,319.494,443.898,3513.772,0
1488767839.814,172.520,390.973,-243.840,3319.178,0
1488767839.814,-25.198,463.529,-1052.511,3286.816,0
1488767839.816,128.088,319.191,-634.253,3924.135,0
1488767839.816,222.313,364.831,-3.921,4663.111,0
1488767839.830,30.355,468.308,-248.417,3802.496,0
1488767839.830,29.854,346.582,222.943,4082.740,0
1488767839.844,221.544,337.954,554.363,4723.132,0
1488767839.844,125.683,448.205,-241.405,4610.072,0
1488767839.846,-37.780,399.896,-993.057,4382.465,0
1488767839.846,183.175,313.400,-546.063,4486.821,0
1488767839.860,194.097,407.872,-1228.333,4309.243,0
1488767839.860,-35.151,456.612,-2044.095,4254.577,0
1488767839.874,115.363,313.497,-1620.474,4895.695,0
1488767839.874,216.099,360.214,-1000.562,5633.407,0
1488767839.875,27.597,470.621,-1235.805,4774.756,0
1488767839.875,34.663,349.681,-734.178,5065.445,0
1488767839.890,223.818,345.698,-423.016,5713.217,0
1488767839.890,121.610,444.848,-1235.753,5583.468,0
1488767839.904,-37.425,396.005,-1949.415,5369.995,0
1488767839.904,201.493,330.572,-1505.398,5491.068,0
1488767839.905,187.449,400.162,-2217.979,5283.339,0
1488767839.905,-35.998,452.339,-3006.320,5242.268,0
1488767839.920,130.137,322.030,-2571.491,5899.359,0
1488767839.920,216.131,360.134,-1982.467,6614.897,0
1488767839.934,26.570,469.973,-2224.240,5758.284,0
1488767839.934,34.370,345.995,-1702.907,6056.686,0
1488767839.936,232.773,347.085,-1407.083,6696.438,0
1488767839.936,120.928,446.995,-2247.775,6548.346,0
1488767839.950,-39.013,400.351,-2925.067,6355.168,0
1488767839.950,196.532,326.046,-2489.068,6464.772,0
1488767839.964,176.987,393.763,-3220.012,6250.917,0
1488767839.964,-32.941,461.049,-3995.649,6217.037,0
1488767839.966,138.647,329.794,-3538.478,6883.407,0
1488767839.966,212.482,359.169,-2975.936,7583.118,0
1488767839.980,26.617,471.955,-3225.813,6722.088,0
1488767839.980,38.508,346.051,-2662.089,7039.223,0
1488767839.994,225.422,344.282,-2389.500,7670.179,0
1488767839.994,110.686,443.474,-3242.905,7523.100,0
1488767839.996,-37.799,397.226,-3896.946,7338.439,0
1488767839.996,200.984,325.652,-3462.158,7448.315,0
1488767840.010,179.412,395.104,-4217.438,7226.356,0
1488767840.010,-31.073,458.343,-4973.294,7201.669,0
1488767840.024,123.862,310.969,-4525.985,7853.872,0
1488767840.024,214.418,363.273,-3956.206,8570.850,0
1488767840.026,26.327,466.444,-4216.608,7695.010,0
1488767840.026,40.937,348.966,-3630.612,8022.840,0
1488767840.040,222.904,337.133,-3381.425,8648.501,0
1488767840.040,103.728,435.143,-4241.067,8500.005,0
1488767840.054,-41.010,396.588,-4867.799,8319.895,0
1488767840.054,188.558,312.183,-4455.283,8421.129,0
1488767840.056,184.740,397.985,-5202.735,8210.101,0
1488767840.056,-32.649,454.430,-5945.906,8185.234,0
1488767840.070,141.045,320.788,-5481.955,8855.998,0
1488767840.070,221.279,366.275,-4934.356,9558.607,0
1488767840.084,24.728,463.334,-5206.064,8673.287,0
1488767840.084,49.118,350.606,-4587.482,9020.864,0
1488767840.086,223.975,336.395,-4357.899,9633.323,0
1488767840.086,108.199,431.857,-5227.823,9476.154,0
1488767840.100,-23.861,398.243,-5815.952,9315.562,0
1488767840.100,197.581,310.834,-5419.939,9410.514,0
1488767840.114,165.283,377.881,-6193.639,9180.947,0
1488767840.114,-58.329,436.196,-6929.976,9155.916,0
1488767840.116,136.439,322.076,-6461.118,9823.603,0
1488767840.116,241.521,388.888,-5922.567,10527.647,0
1488767840.130,59.096,495.956,-6182.980,9661.139,0
1488767840.130,66.600,367.613,-5553.463,9999.198,0
1488767840.144,252.707,363.821,-5326.094,10618.067,0
1488767840.144,131.205,458.435,-6211.190,10458.833,0
1488767840.146,-13.847,415.146,-6783.439,10300.403,0
1488767840.146,214.259,332.198,-6376.615,10411.716,0
1488767840.160,199.180,410.473,-7174.130,10176.005,0
1488767840.160,-22.600,464.355,-7905.647,10140.689,0
1488767840.174,139.253,322.778,-7421.036,10823.320,0
1488767840.174,221.383,367.434,-6911.017,11515.159,0
1488767840.176,33.124,480.669,-7179.740,10637.554,0
1488767840.176,46.646,350.588,-6517.065,10990.946,0
1488767840.190,236.485,349.787,-6313.126,11597.796,0
1488767840.190,125.223,453.609,-7205.025,11438.150,0
1488767840.204,-26.217,404.414,-7760.935,11274.729,0
1488767840.204,208.950,326.231,-7373.655,11383.636,0
1488767840.206,180.452,393.301,-8179.469,11134.477,0
1488767840.206,-34.252,456.025,-8892.459,11110.028,0
1488767840.220,129.004,311.586,-8402.743,11792.962,0
1488767840.220,220.424,363.599,-7905.712,12476.079,0
1488767840.234,26.611,465.992,-8186.280,11589.716,0
1488767840.234,46.655,343.024,-7503.813,11954.560,0
1488767840.236,223.865,336.019,-7314.965,12559.217,0
1488767840.236,115.464,443.315,-8209.056,12399.845,0
1488767840.250,-24.094,404.689,-8732.836,12259.098,0
1488767840.250,200.339,313.877,-8348.676,12362.018,0
1488767840.264,189.190,400.641,-9163.076,12118.580,0
1488767840.264,-46.472,444.100,-9879.274,12082.482,0
1488767840.266,135.614,320.623,-9362.213,12792.669,0
1488767840.266,218.234,368.212,-8879.651,13471.874,0
1488767840.280,13.557,464.232,-9168.656,12577.470,0
1488767840.280,34.297,335.856,-8463.496,12947.669,0
1488767840.294,228.616,341.322,-8279.951,13557.537,0
1488767840.294,114.845,443.367,-9195.198,13383.104,0
1488767840.296,-30.394,399.614,-9704.609,13236.500,0
1488767840.296,195.524,322.983,-9324.155,13350.457,0
1488767840.310,183.695,402.963,-10162.222,13087.964,0
1488767840.310,-51.433,450.297,-10852.092,13069.242,0
1488767840.324,131.644,316.222,-10332.913,13777.017,0
1488767840.324,212.944,367.086,-9862.151,14451.692,0
1488767840.326,19.285,463.720,-10152.165,13562.000,0
1488767840.326,26.000,326.420,-9429.540,13933.296,0
1488767840.340,207.192,325.141,-9277.313,14522.646,0
1488767840.340,112.180,448.059,-10195.010,14356.998,0
1488767840.354,-30.613,397.009,-10664.468,14230.212,0
1488767840.354,196.001,319.451,-10307.698,14326.834,0
1488767840.356,169.866,395.253,-11161.133,14061.611,0
1488767840.356,-48.581,440.022,-11839.756,14036.637,0
1488767840.370,129.369,312.742,-11314.018,14751.153,0
1488767840.370,215.325,359.631,-10868.197,15417.789,0
1488767840.384,14.825,456.743,-11166.035,14515.142,0
1488767840.384,42.685,343.356,-10387.645,14924.531,0
1488767840.386,225.681,340.387,-10253.649,15512.565,0
1488767840.386,131.764,450.499,-11185.206,15334.086,0
1488767840.400,-19.332,400.889,-11633.852,15211.582,0
1488767840.400,206.732,324.008,-11278.388,15313.837,0
1488767840.414,182.221,401.306,-12138.620,15047.803,0
1488767840.414,-37.592,450.424,-12801.881,15026.620,0
1488767840.416,138.690,320.444,-12269.643,15747.686,0
1488767840.416,220.824,369.065,-11842.765,16402.930,0
1488767840.430,21.791,466.341,-12146.624,15501.774,0
1488767840.430,53.578,354.690,-11344.511,15917.750,0
1488767840.444,227.612,341.369,-11239.354,16496.143,0
1488767840.444,114.375,450.733,-12188.062,16300.505,0
1488767840.446,-21.035,407.320,-12604.354,16190.858,0
1488767840.446,205.096,329.410,-12257.274,16294.126,0
1488767840.460,191.247,409.596,-13127.935,16023.896,0
1488767840.460,-35.394,445.085,-13782.806,16009.037,0
1488767840.474,137.619,316.190,-13253.690,16725.574,0
1488767840.474,208.193,360.184,-12839.843,17375.771,0
1488767840.476,19.960,470.640,-13125.960,16485.357,0
1488767840.476,42.932,340.133,-12324.973,16893.215,0
1488767840.490,236.908,344.682,-12210.238,17478.123,0
1488767840.490,112.986,446.207,-13173.774,17281.564,0
1488767840.504,-26.579,402.518,-13579.479,17173.578,0
1488767840.504,200.389,326.022,-13242.916,17269.475,0
1488767840.506,183.508,403.242,-14118.961,17001.422,0
1488767840.506,-45.864,444.218,-14767.628,16979.049,0
1488767840.520,124.060,310.973,-14224.828,17703.904,0
1488767840.520,221.628,372.806,-13812.727,18367.240,0
1488767840.534,20.654,473.370,-14118.673,17458.594,0
1488767840.534,40.436,343.184,-13280.290,17882.244,0
1488767840.536,218.648,341.386,-13198.900,18457.518,0
1488767840.536,93.383,434.249,-13202.745,18247.145,0
1488767840.550,-34.443,397.015,-13562.591,18161.314,0
1488767840.550,198.147,324.999,-13228.164,18263.082,0
1488767840.564,181.804,406.538,-14130.175,17983.129,0
1488767840.564,-39.897,450.043,-14750.718,17971.049,0
1488767840.566,129.335,311.412,-14203.838,18701.340,0
1488767840.566,222.356,369.528,-13815.204,19349.658,0
1488767840.580,23.535,464.673,-14125.187,18439.541,0
1488767840.580,42.992,331.402,-13263.066,18869.576,0
1488767840.594,236.235,348.510,-13193.147,19447.449,0
1488767840.594,109.934,442.290,-13201.596,19230.135,0
1488767840.596,-31.251,391.016,-13550.562,19137.643,0
1488767840.596,195.756,318.739,-13236.966,19233.996,0
1488767840.610,178.223,402.896,-14156.888,18942.463,0
1488767840.610,-42.562,446.557,-14764.153,18938.611,0
1488767840.624,137.471,317.026,-14198.204,19681.006,0
1488767840.624,226.430,369.827,-13827.163,20317.650,0
1488767840.626,7.747,458.181,-14155.204,19389.053,0
1488767840.626,29.964,329.147,-13270.084,19837.646,0
1488767840.640,213.438,328.391,-13216.060,20401.873,0
1488767840.640,114.203,445.336,-13216.845,20208.756,0
1488767840.654,-25.893,394.096,-13542.710,20125.797,0
1488767840.654,192.523,315.057,-13237.693,20217.723,0
1488767840.656,182.930,406.869,-14160.244,19932.133,0
1488767840.656,-36.337,451.051,-14759.477,19924.854,0
1488767840.669,127.443,309.963,-14209.998,20651.918,0
1488767840.669,221.110,371.030,-13842.737,21292.297,0
1488767840.671,15.644,470.270,-2395.789,-205.653,0
1488767840.685,40.651,343.618,-1490.559,246.484,0
1488767840.685,234.323,354.047,-1445.028,807.097,0
1488767840.699,115.417,454.843,-1465.007,593.485,0
1488767840.699,-46.416,380.864,-1776.256,513.473,0
1488767840.701,200.812,323.382,-1474.504,609.763,0
1488767840.701,178.272,405.747,-2418.200,308.050,0
1488767840.715,-58.763,445.026,-3015.938,299.508,0
1488767840.715,133.043,320.741,-2439.800,1047.980,0
1488767840.729,210.727,361.295,-2090.570,1678.005,0
1488767840.729,18.196,466.964,-2409.019,756.722,0
1488767840.731,57.841,348.888,-1459.494,1235.031,0
1488767840.731,216.482,338.539,-484.452,1772.711,0
1488767840.745,91.110,437.095,-531.855,1544.300,0
1488767840.745,-24.745,401.465,-778.883,1500.775,0
1488767840.759,198.091,320.208,-486.993,1586.892,0
