timestamps,,,,,Marker
1488767477.583,-24.588,37.332,-25121.930,22167.508,0
1488767477.583,-177.329,88.563,-26075.631,21904.844,0
1488767477.597,-162.308,47.256,-25945.184,22586.738,0
1488767477.597,-31.612,25.968,-25496.484,23251.447,0
1488767477.597,-95.672,81.522,-26391.801,22802.158,0
1488767477.597,-184.136,96.903,-26987.721,22770.039,0
1488767477.613,-56.805,16.779,-26453.350,23035.502,0
1488767477.613,-54.930,55.646,-26464.305,22650.645,0
1488767477.627,-196.866,118.400,-27292.760,22465.363,0
1488767477.627,-90.655,35.112,-27218.098,22481.812,0
1488767477.627,-22.898,37.706,-27102.234,23129.381,0
1488767477.627,-167.022,101.129,-28036.709,22875.473,0
1488767477.643,-146.496,57.817,-27889.107,23578.545,0
1488767477.643,-27.759,25.040,-27475.521,24225.330,0
1488767477.672,-114.159,76.664,-28387.357,23749.367,0
1488767477.672,-199.080,86.996,-28941.857,23740.078,0
1488767477.672,-61.174,16.338,-28410.572,24024.354,0
1488767477.672,-58.505,56.932,-28439.896,23620.721,0
1488767477.674,-200.977,114.645,-29255.588,23442.109,0
1488767477.674,-92.716,34.241,-29167.209,23466.516,0
1488767477.687,-30.190,43.028,-29062.631,24124.385,0
1488767477.687,-177.370,84.116,-30019.627,23848.582,0
1488767477.687,-133.204,58.135,-29813.188,24575.129,0
1488767477.687,-25.934,27.041,-29424.066,25226.592,0
1488767477.703,-120.303,69.689,-30361.850,24734.832,0
1488767477.703,-183.343,100.456,-30859.123,23771.355,0
1488767477.717,-42.889,33.351,-30347.227,24049.637,0
1488767477.717,-68.575,46.876,-30416.840,23611.059,0
1488767477.717,-218.444,94.801,-31216.465,23435.381,0
1488767477.717,-91.024,34.136,-31118.779,23468.709,0
1488767477.733,-27.305,42.493,-31015.891,24124.771,0
1488767477.733,-175.476,97.729,-31967.365,23856.209,0
1488767477.747,-142.133,68.251,-31776.229,24569.465,0
1488767477.747,-44.007,19.356,-31395.891,25204.760,0
1488767477.747,-136.521,54.647,-32332.877,24718.709,0
1488767477.747,-187.945,87.478,-32817.777,23771.156,0
1488767477.762,-48.793,25.026,-32301.393,24061.641,0
1488767477.762,-69.104,40.671,-32383.281,23615.643,0
1488767477.777,-225.765,79.654,-33169.750,23436.799,0
1488767477.777,-94.829,20.085,-33060.957,23487.873,0
1488767477.777,-46.167,12.545,-32997.652,24114.500,0
1488767477.777,-185.381,75.400,-33940.875,23852.729,0
1488767477.793,-161.971,30.200,-33729.812,24579.641,0
1488767477.793,-43.777,8.519,-33371.137,25197.029,0
1488767477.807,-133.292,53.520,-34311.117,24705.434,0
1488767477.807,-206.007,75.067,-34775.742,23761.715,0
1488767477.807,-73.983,-0.363,-34281.281,24032.691,0
1488767477.807,-79.918,34.140,-34362.707,23610.863,0
1488767477.823,-223.055,92.948,-35121.395,23439.916,0
1488767477.823,-92.419,32.582,-35014.082,23490.658,0
1488767477.837,-60.669,9.425,-34985.707,24087.137,0
1488767477.837,-198.379,77.829,-35920.418,23830.221,0
1488767477.837,-148.300,51.878,-35658.180,24593.012,0
1488767477.837,-38.125,12.407,-35322.621,25207.217,0
1488767477.853,-111.587,73.126,-36269.098,24721.734,0
1488767477.853,-201.397,73.816,-36709.391,23778.508,0
1488767477.867,-35.482,28.328,-36218.359,24063.412,0
1488767477.867,-68.764,44.767,-36338.887,23606.400,0
1488767477.867,-209.421,107.356,-37067.449,23446.904,0
1488767477.867,-78.620,42.038,-36958.336,23499.564,0
1488767477.882,-33.594,38.635,-36949.848,24103.875,0
1488767477.882,-183.380,88.636,-37890.090,23828.617,0
1488767477.884,-140.551,66.082,639.323,97.219,0
1488767477.898,-31.254,25.695,953.850,719.166,0
1488767477.898,-110.866,76.406,-9.963,203.954,0
1488767477.912,-191.535,83.551,-433.391,-736.224,0
1488767477.912,-40.516,34.050,56.474,-446.746,0
1488767477.912,-69.156,46.719,-87.680,-916.122,0
1488767477.912,-200.771,108.620,-784.251,-1058.025,0
1488767477.928,-73.710,45.000,-671.084,-1003.454,0
1488767477.928,-42.521,19.326,-693.033,-429.916,0
1488767477.942,-178.186,93.281,-1624.033,-688.822,0
1488767477.942,-128.855,76.088,-1300.058,105.736,0
1488767477.942,-19.588,32.818,-998.923,713.958,0
1488767477.942,-124.993,68.693,-1019.485,186.965,0
1488767477.958,-195.442,83.482,-1411.625,-745.770,0
1488767477.958,-50.088,23.116,-939.895,-465.922,0
1488767477.972,-78.557,36.978,-1098.425,-941.084,0
1488767477.972,-223.302,89.952,-1794.724,-1082.736,0
1488767477.972,-66.767,54.157,-1645.302,-992.263,0
1488767477.972,-11.425,47.897,-1631.331,-374.145,0
1488767477.988,-165.307,101.271,-2598.450,-675.383,0
1488767477.988,-128.452,77.691,-2290.644,95.121,0
1488767478.002,-34.527,21.944,-2019.353,680.798,0
1488767478.002,-125.780,79.697,-2035.876,150.712,0
1488767478.002,-174.608,115.056,-2373.772,-732.256,0
1488767478.002,-26.136,63.786,-1909.660,-454.181,0
1488767478.018,-73.461,58.565,-2084.523,-945.290,0
1488767478.018,-205.969,124.041,-2761.426,-1084.814,0
1488767478.032,-71.795,70.695,-2635.098,-1012.468,0
1488767478.032,-25.620,62.288,-2654.620,-414.377,0
1488767478.032,-175.171,105.561,-3607.285,-706.460,0
1488767478.032,-140.643,72.859,-3251.379,100.351,0
1488767478.048,-32.569,32.318,-2983.742,700.494,0
1488767478.048,-137.324,65.250,-3034.123,149.596,0
1488767478.062,-199.402,90.511,-3348.226,-729.961,0
1488767478.062,-44.277,36.357,-2889.660,-450.233,0
1488767478.062,-71.095,47.901,-3060.611,-929.636,0
1488767478.062,-225.318,93.511,-3741.433,-1088.025,0
1488767478.078,-77.665,49.724,-3595.482,-994.548,0
1488767478.078,-15.113,61.783,-3621.612,-400.859,0
1488767478.092,-171.100,109.446,-4574.651,-685.226,0
1488767478.092,-134.653,74.340,-4199.264,127.691,0
1488767478.092,-19.212,37.610,-3948.072,722.382,0
1488767478.092,-130.178,64.431,-4013.004,162.302,0
1488767478.108,-195.507,82.444,-4307.001,-710.949,0
1488767478.108,-29.573,38.822,-3856.499,-435.279,0
1488767478.137,-64.093,54.169,-4049.934,-934.713,0
1488767478.137,-218.547,94.662,-4706.525,-1081.800,0
1488767478.137,-92.297,32.539,-4569.546,-992.717,0
1488767478.137,-28.388,40.514,-4614.055,-405.012,0
1488767478.139,-168.320,109.416,-5557.564,-689.151,0
1488767478.139,-120.978,82.953,-5146.154,157.777,0
1488767478.152,-35.995,27.430,-4939.691,703.049,0
1488767478.152,-121.687,72.696,-4980.774,160.984,0
1488767478.152,-177.539,98.717,-5240.768,-693.217,0
1488767478.152,-39.007,28.017,-4830.922,-438.543,0
1488767478.168,-89.440,30.263,-5058.559,-958.519,0
1488767478.168,-209.221,103.709,-5659.228,-1058.188,0
1488767478.182,-80.440,42.925,-5528.523,-975.684,0
1488767478.182,-44.437,30.591,-5609.930,-417.446,0
1488767478.182,-161.762,106.363,-6529.082,-693.664,0
1488767478.182,-120.621,74.697,-6109.859,155.053,0
1488767478.198,-7.727,51.012,-5890.875,746.187,0
1488767478.198,-103.027,98.911,-5961.301,182.165,0
1488767478.212,-190.338,96.084,-6207.783,-681.243,0
1488767478.212,-56.560,22.396,-5816.999,-440.452,0
1488767478.212,-62.873,58.642,-6016.706,-934.837,0
1488767478.212,-218.846,98.735,-6625.980,-1056.596,0
1488767478.228,-97.843,30.228,-6508.437,-967.099,0
1488767478.228,-35.086,34.946,-6583.759,-405.712,0
1488767478.242,-168.256,110.321,-7522.661,-697.405,0
1488767478.242,-129.442,69.616,-7073.422,157.758,0
1488767478.242,-33.096,26.009,-6892.068,721.995,0
1488767478.242,-119.630,77.696,-6960.292,168.767,0
1488767478.258,-180.033,87.774,-7163.653,-670.643,0
1488767478.258,-44.396,18.189,-6772.214,-423.710,0
1488767478.272,-67.625,43.503,-7011.590,-942.819,0
1488767478.272,-218.537,90.623,-7603.740,-1064.108,0
1488767478.272,-70.241,44.039,-7454.497,-954.273,0
1488767478.272,-26.422,45.294,-7551.042,-400.167,0
1488767478.288,-183.790,83.873,-8504.448,-691.285,0
1488767478.288,-112.745,84.264,-8042.602,173.270,0
1488767478.302,-13.677,50.575,-7870.131,719.461,0
1488767478.302,-112.504,84.699,-7960.285,155.829,0
1488767478.302,-178.416,104.212,-8137.653,-683.218,0
1488767478.302,-32.438,39.018,-7757.584,-423.143,0
1488767478.318,-59.956,58.718,-8009.844,-948.401,0
1488767478.318,-196.156,109.351,-8573.979,-1050.175,0
1488767478.332,-79.712,40.522,-8449.479,-963.142,0
1488767478.332,-43.912,29.265,-8581.867,-436.443,0
1488767478.332,-179.539,97.112,-9508.943,-723.461,0
1488767478.332,-98.199,100.570,-8987.742,200.064,0
1488767478.348,-10.298,51.203,-8852.214,728.432,0
1488767478.348,-120.864,79.194,-8964.590,137.905,0
1488767478.362,-183.354,97.050,-9111.748,-672.281,0
1488767478.362,-44.778,29.482,-8754.783,-431.713,0
1488767478.377,-66.746,55.491,-9020.817,-962.271,0
1488767478.377,-219.573,93.483,-9569.958,-1066.872,0
1488767478.377,-92.351,32.653,-9433.857,-971.151,0
1488767478.377,-43.603,28.584,-9562.944,-431.268,0
1488767478.392,-198.443,74.594,-10519.604,-745.824,0
1488767478.392,-148.143,53.505,-10005.417,159.035,0
1488767478.392,-24.268,37.203,-9847.248,723.785,0
1488767478.392,-127.127,74.248,-9968.487,128.714,0
1488767478.408,-218.485,56.951,-10115.350,-707.153,0
1488767478.408,-61.965,15.745,-9745.420,-441.850,0
1488767478.422,-52.875,62.836,-10002.717,-957.388,0
1488767478.422,-212.479,101.355,-10541.689,-1063.676,0
1488767478.422,-72.092,42.983,-10403.733,-952.663,0
1488767478.422,-16.777,54.679,-10541.788,-422.010,0
1488767478.438,-173.763,104.126,-11485.525,-728.293,0
1488767478.438,-126.156,76.885,-10960.311,178.066,0
1488767478.452,-16.628,39.935,-10838.718,722.926,0
1488767478.452,-100.237,94.079,-10953.192,134.330,0
1488767478.452,-187.421,95.573,-11061.821,-676.956,0
1488767478.452,-35.336,38.315,-10719.461,-428.471,0
1488767478.468,-61.463,61.071,-11012.995,-974.242,0
1488767478.468,-194.888,115.997,-11512.339,-1062.167,0
1488767478.482,-71.518,47.011,-11382.162,-956.532,0
1488767478.482,-29.644,46.005,-11552.152,-434.619,0
1488767478.482,-176.585,93.383,-12495.011,-749.096,0
1488767478.482,-139.625,56.112,-11952.675,160.561,0
1488767478.498,-32.894,23.578,-11854.414,690.559,0
1488767478.498,-114.970,80.602,-11958.601,112.700,0
1488767478.512,-191.829,80.933,-12044.514,-689.860,0
1488767478.512,-28.973,41.664,-11706.742,-429.920,0
1488767478.512,-72.648,49.355,-12022.150,-992.158,0
1488767478.512,-199.456,111.986,-12491.344,-1054.498,0
1488767478.528,-77.287,41.642,-12364.129,-956.743,0
1488767478.528,-39.938,34.158,-12541.423,-454.757,0
1488767478.542,-196.831,79.809,-13495.000,-771.777,0
1488767478.542,-145.566,55.653,-12915.792,166.906,0
1488767478.542,-14.387,38.663,-12809.312,711.209,0
1488767478.542,-122.392,73.293,-12957.396,102.024,0
1488767478.558,-184.628,90.476,-12997.443,-666.925,0
1488767478.558,-34.185,34.811,-12678.249,-426.440,0
1488767478.572,-71.127,47.061,-13007.356,-996.360,0
1488767478.572,-211.527,98.632,-13472.996,-1074.999,0
1488767478.572,-67.049,48.222,-13315.964,-936.385,0
1488767478.572,-30.957,44.722,-13517.769,-438.744,0
1488767478.588,-202.734,77.003,-14464.778,-758.790,0
1488767478.588,-118.218,72.066,-13862.282,190.230,0
1488767478.602,-1.038,41.668,-13787.991,722.158,0
1488767478.602,-99.278,86.238,-13929.942,113.070,0
1488767478.602,-161.741,102.210,-13932.613,-637.094,0
1488767478.602,-16.650,42.192,-13639.519,-408.696,0
1488767478.618,-54.341,60.276,-13977.382,-981.451,0
1488767478.618,-196.218,110.512,-14425.919,-1055.355,0
1488767478.632,-58.984,53.034,-14276.074,-912.881,0
1488767478.632,-25.663,45.105,-14494.709,-435.938,0
1488767478.632,-173.572,100.297,-15426.026,-743.634,0
1488767478.632,-134.777,64.386,-14821.364,210.139,0
1488767478.648,-32.073,32.739,-14781.450,703.909,0
1488767478.648,-131.289,67.672,-14935.785,87.084,0
1488767478.662,-216.682,64.927,-14940.920,-679.039,0
1488767478.662,-72.447,2.579,-14650.418,-442.249,0
1488767478.662,-28.969,89.967,-14932.963,-953.534,0
1488767478.662,-193.405,115.827,-15390.110,-1044.317,0
1488767478.692,-49.720,61.744,-15234.042,-901.955,0
1488767478.692,-8.879,64.233,-15460.755,-414.656,0
1488767478.692,-173.509,106.683,-16410.408,-742.110,0
1488767478.692,-123.243,69.040,-15787.127,214.188,0
1488767478.693,-26.710,28.878,-15760.545,708.002,0
1488767478.693,-127.762,72.823,-15933.882,83.521,0
1488767478.707,-190.634,86.106,-15895.157,-651.649,0
1488767478.707,-43.572,25.093,-15611.929,-408.995,0
1488767478.722,-74.504,43.794,-15975.881,-1008.161,0
1488767478.722,-198.359,103.298,-16383.097,-1056.121,0
1488767478.722,-59.087,56.011,-16223.012,-909.669,0
1488767478.722,-38.788,30.160,-16486.775,-451.350,0
1488767478.738,-194.417,85.356,-17428.188,-771.949,0
1488767478.738,-128.271,66.918,-16766.914,207.473,0
1488767478.752,-22.060,34.082,-16740.412,708.823,0
1488767478.752,-120.464,74.684,-16924.355,80.554,0
1488767478.752,-195.266,77.738,-16874.744,-655.556,0
1488767478.752,-43.761,30.914,-16602.807,-427.981,0
1488767478.768,-76.212,44.391,-16975.264,-1016.383,0
1488767478.768,-222.431,99.601,-17372.922,-1068.723,0
1488767478.782,-90.612,28.068,-17232.236,-941.606,0
1488767478.782,-32.821,42.999,-17473.203,-450.929,0
1488767478.782,-188.914,90.176,-18404.781,-768.177,0
1488767478.782,-141.422,54.352,-17744.781,208.009,0
1488767478.798,-41.947,22.443,-16774.068,686.483,0
1488767478.798,-145.426,61.127,-16964.830,46.616,0
1488767478.812,-200.040,76.904,-16857.180,-651.863,0
1488767478.812,-36.889,37.519,-16587.328,-410.024,0
1488767478.812,-84.509,39.899,-16998.168,-1026.199,0
1488767478.812,-220.731,87.413,-17369.420,-1073.583,0
1488767478.829,-75.120,33.510,-17203.336,-912.466,0
1488767478.829,-34.790,33.627,-17478.512,-451.888,0
1488767478.842,-187.722,93.254,-18412.760,-769.619,0
1488767478.842,-145.613,46.977,-17722.348,-763.521,0
1488767478.842,-37.244,20.813,-16766.902,-289.270,0
1488767478.842,-112.315,80.690,-16940.875,-907.685,0
1488767478.858,-191.601,82.715,-16826.219,-1616.127,0
1488767478.858,-30.144,35.839,-16583.494,-1381.611,0
1488767478.872,-62.830,61.493,-16992.328,-1993.780,0
1488767478.872,-212.595,97.903,-17348.781,-2044.197,0
1488767478.872,-63.640,46.453,-17188.443,-1880.702,0
1488767478.872,-34.560,43.443,-17490.174,-1433.816,0
1488767478.887,-186.172,93.552,-18420.766,-1764.722,0
1488767478.887,-130.379,58.090,-17698.018,-1726.824,0
1488767478.887,-36.316,22.651,2847.451,1682.241,0
1488767478.903,-129.672,77.135,2648.616,1049.094,0
1488767478.903,-169.060,102.333,2806.045,359.603,0
1488767478.917,-36.849,31.888,3023.698,569.989,0
1488767478.917,-62.123,56.817,2601.261,-39.693,0
1488767478.917,-204.898,100.377,2269.031,-79.838,0
1488767478.917,-88.207,19.318,2402.973,56.338,0
1488767478.947,-40.436,40.174,2108.441,514.496,0
1488767478.947,-185.578,96.693,1194.945,204.320,0
1488767478.947,-125.644,66.385,1928.113,241.706,0
1488767478.947,-20.540,35.464,2851.440,702.508,0
1488767478.949,-122.347,82.540,2628.635,55.715,0
1488767478.949,-193.944,73.111,2798.492,-639.278,0
1488767478.963,-53.583,14.028,3003.246,-427.983,0
1488767478.963,-90.500,32.808,2573.513,-1041.813,0
1488767478.977,-229.033,80.815,2259.230,-1075.401,0
1488767478.977,-94.777,29.268,2422.883,-909.923,0
1488767478.977,-19.838,52.495,2116.031,-449.442,0
1488767478.977,-173.638,105.215,1184.819,-779.713,0
1488767478.993,-132.897,59.446,1936.836,-731.055,0
1488767478.993,-36.144,23.775,2835.734,-284.584,0
1488767479.007,-130.053,78.472,2615.693,-931.209,0
1488767479.007,-177.389,91.916,2830.526,-1590.680,0
1488767479.007,-29.399,33.386,3038.998,-1371.255,0
1488767479.007,-49.292,73.487,2591.354,-1996.117,0
1488767479.022,-190.884,115.813,2304.534,-2017.812,0
1488767479.022,-65.170,47.190,2457.142,-1855.772,0
1488767479.037,-39.897,46.143,2107.375,-1431.224,0
1488767479.037,-186.628,98.892,1176.118,-1767.766,0
1488767479.037,-122.734,59.496,1959.390,-1700.151,0
1488767479.037,-22.540,25.680,2842.382,-1257.958,0
1488767479.052,-126.195,76.612,2600.971,-1922.082,0
1488767479.052,-200.934,73.938,2839.732,-2583.244,0
1488767479.067,-23.107,47.452,3042.949,-2348.578,0
1488767479.067,-40.460,72.388,2581.198,-2979.249,0
1488767479.067,-188.706,116.408,2322.652,-2991.033,0
1488767479.067,-71.780,38.824,2459.672,-2842.804,0
1488767479.083,-31.189,34.512,2101.760,-2419.726,0
1488767479.083,-185.613,99.801,1180.021,-2750.883,0
1488767479.097,-123.241,65.768,1988.144,-2667.867,0
1488767479.097,-28.930,29.483,2849.400,-2227.080,0
1488767479.097,-127.753,65.893,2593.044,-2906.927,0
1488767479.097,-198.692,69.545,2860.906,-3554.348,0
1488767479.113,-46.831,20.313,3029.334,-3339.415,0
1488767479.113,-61.409,54.090,2569.779,-3965.343,0
1488767479.127,-212.322,94.969,2320.339,-3980.886,0
1488767479.127,-65.226,48.460,2457.662,-3821.190,0
1488767479.127,-32.743,40.217,2081.922,-3413.547,0
1488767479.127,-187.219,96.377,1158.484,-3743.144,0
1488767479.142,-138.206,56.267,1961.503,-3665.932,0
1488767479.142,-22.234,34.314,2830.365,-3220.747,0
1488767479.157,-146.264,65.106,2555.356,-3918.295,0
1488767479.157,-202.175,72.719,2852.358,-4540.737,0
1488767479.157,-50.924,16.859,3007.738,-4336.466,0
1488767479.157,-67.421,57.634,2522.527,-4975.458,0
1488767479.172,-198.946,111.610,2304.038,-5949.915,0
1488767479.174,-105.607,6.564,2431.514,-5812.775,0
1488767479.187,-41.268,41.702,2063.168,-5380.796,0
1488767479.187,-203.961,84.391,1134.394,-5726.935,0
1488767479.187,-130.870,57.752,1989.924,-5610.405,0
1488767479.187,-27.385,33.614,2819.331,-5182.933,0
1488767479.203,-135.910,65.259,2542.421,-5880.581,0
1488767479.203,-185.493,84.447,2877.885,-6482.944,0
1488767479.218,-62.666,7.177,3011.711,-6297.458,0
1488767479.218,-81.597,47.540,2502.588,-6949.816,0
1488767479.218,-219.031,95.304,2304.859,-7921.884,0
1488767479.218,-77.474,32.238,2464.779,-7745.037,0
1488767479.234,-34.878,44.742,2064.973,-7338.744,0
1488767479.234,-201.341,79.260,1134.257,-7689.381,0
1488767479.247,-137.477,52.546,1996.942,-7574.041,0
1488767479.247,-32.432,23.917,2809.620,-7154.718,0
1488767479.247,-136.398,73.491,2529.737,-7849.075,0
1488767479.247,-184.381,86.227,2903.976,-8436.479,0
1488767479.263,-33.496,35.866,3032.728,-8229.186,0
1488767479.263,-68.128,60.570,2493.247,-8911.123,0
1488767479.277,-212.421,98.890,2314.207,-9879.397,0
1488767479.277,-69.121,40.701,2474.261,-9691.574,0
1488767479.277,-40.901,41.739,2059.806,-9299.238,0
1488767479.277,-182.266,108.999,1154.357,-9629.468,0
1488767479.293,-128.851,52.280,2028.105,-9509.311,0
1488767479.293,-38.096,26.535,2820.176,-9102.583,0
1488767479.307,-139.949,71.550,2522.585,-9810.445,0
1488767479.307,-185.299,85.849,2920.056,-10384.415,0
1488767479.307,-31.411,37.485,3044.918,-10182.193,0
1488767479.307,-71.017,55.947,2492.112,-10875.006,0
1488767479.323,-217.393,102.791,2318.465,-11841.440,0
1488767479.323,-72.246,44.400,2490.420,-11646.833,0
1488767479.337,-33.491,41.651,2050.245,-11263.095,0
1488767479.337,-172.566,110.609,1149.711,-11593.089,0
1488767479.337,-115.898,64.676,2041.925,-11468.002,0
1488767479.337,-17.319,31.761,2820.679,-11060.000,0
1488767479.353,-108.225,96.093,2534.917,-11757.267,0
1488767479.353,-175.824,88.684,2934.594,-12347.288,0
1488767479.367,-29.902,32.866,3035.121,-12151.342,0
1488767479.367,-66.004,61.018,2476.291,-12838.376,0
1488767479.367,-216.250,92.084,2326.732,-13807.598,0
1488767479.367,-81.085,26.748,2487.658,-13610.021,0
1488767479.383,-47.820,31.828,2032.048,-13239.443,0
1488767479.383,-195.412,89.440,1128.825,-13584.120,0
1488767479.412,-128.881,44.890,2055.529,-13417.603,0
1488767479.412,-42.491,6.029,2817.457,-13017.117,0
1488767479.412,-134.178,76.449,2487.194,-13753.070,0
1488767479.412,-187.315,85.580,2938.318,-14305.946,0
1488767479.413,-46.984,30.469,3022.505,-14116.291,0
1488767479.413,-98.318,43.284,2440.610,-14827.758,0
1488767479.427,-233.011,94.657,2330.047,-15774.551,0
1488767479.427,-83.447,37.889,2491.336,-15567.564,0
1488767479.427,-67.318,31.333,2017.782,-15200.873,0
1488767479.427,-219.637,77.571,1114.436,-15556.100,0
1488767479.443,-159.733,40.337,2047.909,-15395.207,0
1488767479.443,-44.370,24.124,2801.157,-14991.891,0
1488767479.457,-156.646,60.239,2477.173,-15721.385,0
1488767479.457,-211.072,70.888,2947.120,-16271.049,0
1488767479.457,-61.830,13.301,3017.450,-16081.752,0
1488767479.457,-107.741,30.723,2419.665,-16799.252,0
1488767479.473,-245.122,71.322,2333.438,-17737.051,0
1488767479.473,-80.868,35.520,2507.622,-17516.484,0
1488767479.487,-45.879,28.070,2017.840,-17166.383,0
1488767479.487,-201.612,88.606,1127.789,-17506.059,0
1488767479.487,-142.071,38.252,2071.046,-17345.137,0
1488767479.487,-39.974,22.136,2811.141,-16945.186,0
1488767479.503,-149.908,61.908,2470.196,-17680.979,0
1488767479.503,-202.574,68.807,2971.835,-18215.652,0
1488767479.517,-54.973,16.111,3040.673,-18033.055,0
1488767479.517,-86.208,47.603,2435.812,-18738.672,0
1488767479.517,-216.189,92.140,2371.504,-19667.367,0
1488767479.517,-80.002,33.510,2513.001,-19472.686,0
1488767479.532,-56.547,25.716,2002.744,-19130.871,0
1488767479.532,-211.944,75.645,1120.603,-19474.236,0
1488767479.547,-126.261,60.884,2093.521,-19281.229,0
1488767479.547,-25.648,30.893,2807.474,-18902.783,0
1488767479.547,-137.741,75.778,2469.634,-19637.490,0
1488767479.547,-191.139,75.224,2994.867,-20168.350,0
1488767479.563,-31.784,40.107,3041.389,-19982.262,0
1488767479.563,-76.015,52.518,2423.300,-20711.674,0
1488767479.577,-218.236,79.723,2373.956,-21632.912,0
1488767479.577,-71.776,41.973,2515.068,-21442.123,0
1488767479.577,-51.025,35.357,2005.738,-21089.619,0
1488767479.577,-205.375,85.197,1113.488,-21439.760,0
1488767479.593,-125.025,60.151,1133.453,-21231.705,0
1488767479.593,-35.557,26.492,1824.095,-20864.090,0
1488767479.607,-128.669,83.766,1489.490,-21594.930,0
1488767479.607,-174.764,86.180,2036.994,-22103.566,0
1488767479.607,-35.952,34.779,2053.186,-21941.934,0
1488767479.607,-85.479,42.560,1408.805,-22688.078,0
1488767479.623,-217.939,90.653,1394.938,-23591.260,0
1488767479.623,-89.109,25.788,1532.426,-23394.408,0
1488767479.637,-42.837,32.960,1001.854,-23055.014,0
1488767479.637,-177.395,105.288,143.274,-23380.777,0
1488767479.652,-127.566,54.365,150.755,-23194.701,0
1488767479.652,-32.773,25.366,828.827,-22833.111,0
1488767479.652,-134.457,79.641,478.675,-23572.492,0
1488767479.652,-199.726,60.358,1044.199,-24091.553,0
1488767479.667,-64.212,3.115,1046.205,-23932.811,0
1488767479.667,-80.829,48.000,418.373,-24652.023,0
1488767479.667,-222.324,85.939,413.811,-25563.646,0
1488767479.667,-73.433,31.322,564.586,-25349.004,0
1488767479.682,-53.602,19.324,17.578,-25022.988,0
1488767479.682,-197.693,83.996,-855.207,-25367.979,0
1488767479.697,-122.078,57.155,-812.525,-25147.850,0
1488767479.697,-32.879,21.304,-160.315,-24797.023,0
1488767479.697,-141.789,71.518,-525.751,-25549.031,0
1488767479.697,-185.606,78.184,84.060,-26031.924,0
1488767479.713,-47.575,24.199,1053.339,-25870.598,0
1488767479.713,-92.806,49.053,393.561,-26623.154,0
1488767479.727,-229.058,83.226,-574.254,-27525.709,0
1488767479.727,-87.134,23.941,-444.691,-27325.988,0
1488767479.727,-56.959,34.201,-1002.796,-27001.756,0
1488767479.727,-204.169,86.020,-1870.580,-27347.529,0
1488767479.742,-134.201,47.760,-1825.636,-27131.578,0
1488767479.742,-33.188,23.081,-1165.362,-26770.381,0
1488767479.757,-134.457,77.790,-1523.181,-27516.891,0
1488767479.757,-189.160,72.281,-907.042,-28005.385,0
1488767479.757,-36.376,28.307,-901.834,-27833.975,0
1488767479.757,-78.962,55.839,-1570.079,-28589.809,0
1488767479.773,-204.937,101.396,-2504.441,-29472.561,0
1488767479.773,-61.361,43.697,-2356.152,-29252.693,0
1488767479.787,-29.828,45.356,-2924.512,-28937.881,0
1488767479.787,-195.961,83.579,-3790.145,-29288.650,0
1488767479.787,-131.192,45.178,-3721.228,-29057.455,0
1488767479.787,-19.161,33.150,-3078.828,-28698.701,0
1488767479.803,-131.317,75.529,-3450.073,-29455.480,0
1488767479.803,-176.664,82.203,-2794.979,-29915.104,0
1488767479.817,-47.097,12.805,-1865.918,-29774.795,0
1488767479.817,-74.951,55.775,-2521.549,-30510.582,0
1488767479.817,-201.285,108.685,-3438.643,-31396.105,0
1488767479.817,-64.302,38.715,-3317.525,-31196.539,0
1488767479.833,-42.657,34.901,-3916.133,-30901.469,0
1488767479.833,-189.441,97.860,-4755.625,-31228.426,0
1488767479.847,-117.203,61.994,-4682.399,-30999.438,0
1488767479.847,-22.776,33.493,-4079.567,-30675.557,0
1488767479.847,-141.791,78.123,-4451.818,-31436.631,0
1488767479.847,-168.969,86.143,-3757.784,-31879.682,0
1488767479.863,-25.504,36.982,-2839.898,-31736.939,0
1488767479.863,-81.176,53.828,-3529.805,-32505.521,0
1488767479.880,-220.241,85.986,-4423.496,-33383.809,0
1488767479.880,-80.629,21.585,-4312.224,-33176.941,0
1488767479.881,-46.152,32.395,-4913.955,-32875.164,0
1488767479.881,-177.325,115.471,-5722.593,-33183.934,0
1488767479.892,-120.017,53.905,-5653.264,-32957.281,0
1488767479.892,-27.651,30.920,-5073.432,-32639.807,0
1488767479.892,-116.709,96.989,-1505.740,-47.295,0
1488767479.908,-160.627,95.844,-784.861,-483.513,0
1488767479.908,-25.618,31.806,96.388,-357.196,0
1488767479.922,-74.828,55.003,-616.055,-1138.121,0
1488767479.922,-202.157,103.915,-1461.478,-1993.428,0
1488767479.922,-53.812,47.349,-1348.763,-1774.826,0
1488767479.922,-29.886,51.985,-1997.441,-1506.018,0
1488767479.938,-202.785,87.916,-2836.428,-1864.465,0
1488767479.938,-110.894,62.877,-2686.396,-1581.338,0
1488767479.952,-16.822,35.516,-2161.574,-1281.789,0
1488767479.952,-114.011,101.736,-2538.152,-2046.763,0
1488767479.952,-144.106,115.550,-1753.444,-2459.210,0
1488767479.952,3.297,70.705,-887.192,-2318.861,0
1488767479.967,-21.850,116.288,-1631.283,-3107.475,0
1488767479.967,-148.820,158.978,-2427.619,-3947.906,0
1488767479.982,14.260,119.028,-2291.770,-3716.232,0
1488767479.982,55.128,143.160,-2997.552,-3468.506,0
1488767479.982,-108.268,186.178,-3817.536,-3815.435,0
1488767479.982,-16.040,155.840,-3598.765,-3514.861,0
1488767479.998,102.217,163.419,-3105.964,-3199.454,0
1488767479.998,-7.272,219.489,-3569.372,-4002.905,0
1488767480.012,-40.292,212.099,-2645.442,-4383.077,0
1488767480.012,103.939,168.256,-1764.948,-4217.917,0
1488767480.012,48.334,200.257,-2702.384,-5074.051,0
1488767480.012,-95.592,214.496,-3513.733,-5990.689,0
1488767480.027,57.649,137.312,-2889.770,-5532.224,0
1488767480.027,62.468,150.292,-2891.984,-5330.608,0
1488767480.042,-83.699,244.184,-3286.543,-5904.858,0
1488767480.042,-35.542,124.627,-2471.834,-5496.299,0
1488767480.042,80.722,125.952,-1821.883,-5019.710,0
1488767480.042,-56.229,189.895,-1840.205,-5020.088,0
1488767480.058,-148.833,113.975,-934.661,-5549.317,0
1488767480.058,22.064,67.982,-496.885,-5109.373,0
1488767480.072,-46.702,110.162,-678.756,-5988.186,0
1488767480.072,-196.646,133.389,-911.464,-6113.277,0
1488767480.073,-70.366,6.951,14.406,-5603.030,0
1488767480.073,-35.950,45.889,-874.699,-5313.534,0
1488767480.088,-215.499,112.621,-1354.951,-5930.606,0
1488767480.088,-139.887,8.663,-503.340,-5495.074,0
1488767480.102,-23.279,11.358,123.204,-5028.407,0
1488767480.102,-151.068,93.226,82.749,-5037.821,0
1488767480.117,-242.344,13.121,1011.203,-5572.623,0
1488767480.117,-66.712,-29.315,1435.213,-5133.553,0
1488767480.117,-101.445,45.496,1237.697,-6009.636,0
1488767480.117,-262.672,65.600,1050.194,-6127.431,0
1488767480.132,-102.733,-25.078,1960.581,-5607.231,0
1488767480.132,-80.105,1.470,1013.964,-5354.110,0
1488767480.132,-242.129,70.278,721.092,-5907.046,0
1488767480.132,-168.249,-16.846,1422.089,-5492.671,0
1488767480.148,-44.606,-0.509,1910.608,-5102.654,0
1488767480.148,-160.722,76.348,1094.697,-6044.001,0
1488767480.162,-221.798,21.289,1150.756,-6467.855,0
1488767480.162,-60.136,-14.131,1273.954,-6154.629,0
1488767480.162,-126.927,17.607,1204.253,-7064.768,0
1488767480.162,-256.596,45.973,424.967,-7949.594,0
1488767480.177,-106.875,-20.310,750.100,-7610.896,0
1488767480.177,-71.565,8.527,-98.206,-7394.990,0
1488767480.192,-222.178,72.171,-991.410,-7792.788,0
1488767480.192,-150.049,11.356,-609.463,-7422.061,0
1488767480.192,-65.663,-1.341,-185.308,-7136.922,0
1488767480.192,-174.506,59.072,-727.994,-7992.820,0
1488767480.208,-232.915,24.792,240.777,-8352.427,0
1488767480.208,-66.787,-12.476,1121.357,-8177.655,0
1488767480.222,-85.453,54.997,251.950,-9007.322,0
1488767480.222,-239.570,64.768,-512.860,-9877.687,0
1488767480.222,-90.392,3.261,-264.282,-9577.610,0
1488767480.222,-50.679,25.800,-1044.904,-9339.089,0
1488767480.237,-233.568,62.086,-1973.697,-9767.644,0
1488767480.237,-139.897,15.666,-1570.612,-9370.745,0
1488767480.252,-44.000,11.515,-1141.905,-9084.671,0
1488767480.252,-159.129,69.571,-1727.050,-9958.054,0
1488767480.252,-214.236,35.905,-1713.330,-10316.990,0
1488767480.252,-72.440,-16.487,-820.151,-10134.492,0
1488767480.268,-112.790,29.642,-1756.913,-11008.335,0
1488767480.268,-253.032,59.788,-2505.439,-11866.975,0
1488767480.282,-83.022,6.838,-2203.504,-11531.512,0
1488767480.282,-55.898,26.508,-3018.712,-11312.127,0
1488767480.282,-216.535,80.780,-3953.444,-11733.390,0
1488767480.282,-157.203,5.227,-3552.204,-11361.350,0
1488767480.298,-58.011,-2.508,-3099.779,-11058.865,0
1488767480.298,-155.260,75.924,-3699.943,-11921.835,0
1488767480.312,-218.146,33.655,-3677.614,-12283.810,0
1488767480.312,-69.009,-18.860,-2762.855,-12098.548,0
1488767480.312,-99.436,43.460,-3702.407,-12952.797,0
1488767480.312,-226.750,80.572,-4453.966,-13812.641,0
1488767480.328,-85.122,8.478,-4144.439,-13484.515,0
1488767480.328,-51.439,25.852,-4957.370,-13263.055,0
1488767480.342,-199.172,98.180,-5926.004,-13690.690,0
1488767480.342,-141.172,19.433,-5497.118,-13305.142,0
1488767480.342,-60.908,-6.881,-5047.715,-13011.606,0
1488767480.342,-163.939,63.202,-5704.669,-13910.963,0
1488767480.358,-189.164,63.268,-5630.980,-14234.565,0
1488767480.358,-49.148,5.453,-4698.767,-14037.452,0
1488767480.372,-97.374,38.897,-5674.578,-14921.156,0
1488767480.372,-236.524,73.500,-6456.198,-15802.695,0
1488767480.372,-72.247,17.899,-6087.532,-15440.593,0
1488767480.372,-47.390,35.228,-6917.277,-15221.093,0
1488767480.387,-200.853,100.390,-6938.180,-15672.319,0
1488767480.387,-130.294,33.289,-6449.608,-15260.001,0
1488767480.402,-31.694,21.093,-5997.296,-14948.753,0
1488767480.402,-138.352,86.996,-6690.767,-15861.132,0
1488767480.402,-177.961,71.049,-6586.044,-16179.988,0
1488767480.402,-46.203,12.407,-5665.451,-15983.693,0
1488767480.418,-70.015,69.839,-5682.377,-16870.105,0
1488767480.418,-200.272,106.342,-6423.386,-17743.436,0
1488767480.432,-51.081,35.295,-6056.025,-17369.590,0
1488767480.432,-50.642,29.656,-6942.894,-17192.070,0
1488767480.432,-235.094,70.254,-6977.320,-17677.236,0
1488767480.432,-115.325,45.518,-6423.166,-17201.160,0
1488767480.447,3.063,53.022,-5984.825,-16883.375,0
1488767480.447,-137.445,90.031,-6702.572,-17836.268,0
1488767480.462,-197.059,55.033,-6573.158,-18154.900,0
1488767480.462,-30.265,26.030,-5677.192,-17938.967,0
1488767480.462,-57.162,80.391,-5713.667,-18843.602,0
1488767480.462,-206.212,104.287,-6384.710,-19701.197,0
1488767480.478,-63.762,24.156,-6077.203,-19349.693,0
1488767480.478,-51.074,34.577,-6981.634,-19172.057,0
1488767480.492,-218.883,88.546,-7926.007,-19623.467,0
1488767480.492,-103.909,59.330,-7367.601,-19129.346,0
1488767480.492,-14.423,40.750,-7029.254,-18873.854,0
1488767480.492,-134.062,94.124,-7721.513,-19818.447,0
1488767480.508,-161.756,95.895,-7494.338,-20071.133,0
1488767480.508,-18.924,41.849,-6652.691,-19886.676,0
1488767480.522,-79.278,63.633,-6748.178,-20840.133,0
1488767480.522,-230.954,85.281,-7378.265,-21683.611,0
1488767480.522,-69.097,22.941,-7052.940,-21301.227,0
1488767480.522,-26.000,53.849,-7977.312,-21119.525,0
1488767480.537,-186.397,113.925,-8899.845,-21579.275,0
1488767480.537,-121.586,39.624,-8331.778,-21094.311,0
1488767480.552,-21.583,37.287,-8028.482,-20845.893,0
1488767480.552,-147.449,90.358,-8732.825,-21796.594,0
1488767480.552,-169.126,81.476,-8435.714,-22024.361,0
1488767480.552,-25.261,28.388,-7635.078,-21842.713,0
1488767480.568,-94.015,55.313,-7772.340,-21843.512,0
1488767480.568,-236.689,84.266,-8335.823,-22658.217,0
1488767480.582,-69.042,26.548,-7999.440,-22259.010,0
1488767480.582,-45.337,41.072,-8000.719,-22108.072,0
1488767480.582,-198.250,101.420,-8903.217,-22554.143,0
1488767480.582,-95.079,65.835,-8275.831,-22027.252,0
1488767480.597,-21.379,33.437,-8009.571,-21807.131,0
1488767480.597,-142.847,91.871,-8741.398,-22774.363,0
1488767480.612,-148.625,90.397,-8373.892,-22962.613,0
1488767480.612,-24.889,21.422,-7621.392,-22813.539,0
1488767480.612,-78.661,65.652,-7766.182,-23787.096,0
1488767480.612,-199.640,102.283,-8289.024,-24581.387,0
1488767480.628,-60.050,26.299,-7956.033,-24188.807,0
1488767480.628,-37.444,47.543,-7997.056,-24063.572,0
1488767480.642,-211.611,97.020,-8935.605,-24540.379,0
1488767480.642,-103.552,48.645,-8225.150,-23982.963,0
1488767480.642,-23.588,34.609,-7997.179,-23770.299,0
1488767480.642,-175.906,64.246,-8807.566,-23811.391,0
1488767480.657,-202.276,45.479,-8406.506,-24007.443,0
1488767480.657,-21.540,26.099,-7582.428,-23774.605,0
1488767480.672,-88.649,60.164,-7811.041,-23809.746,0
1488767480.672,-204.563,106.481,-8338.056,-24615.223,0
1488767480.672,-28.558,47.158,-7885.594,-24154.201,0
1488767480.672,-37.392,44.641,-8003.677,-24067.137,0
1488767480.688,-218.324,93.187,-8054.502,-24593.641,0
1488767480.688,-98.249,52.033,-7218.917,-23976.939,0
1488767480.702,1.567,44.699,-6955.230,-23719.436,0
1488767480.702,-143.175,92.041,-7883.851,-23802.170,0
1488767480.702,-172.282,74.261,-7428.778,-23997.230,0
1488767480.702,-29.267,10.848,-6533.979,-23750.152,0
1488767480.718,-93.974,57.565,-6864.126,-23813.279,0
1488767480.718,-216.164,103.429,-7463.654,-24675.020,0
1488767480.732,-34.467,45.588,-6797.961,-24115.805,0
1488767480.732,-37.608,44.129,-6932.033,-24007.191,0
1488767480.732,-223.620,101.475,-7256.522,-24662.924,0
1488767480.732,-107.191,47.459,-7176.890,-23990.496,0
1488767480.747,-23.674,23.576,-6827.054,-23668.279,0
1488767480.747,-159.002,91.132,-7045.273,-23848.699,0
1488767480.762,-179.332,82.639,-6528.227,-24063.822,0
1488767480.762,-20.642,21.626,-6409.651,-23696.023,0
1488767480.762,-89.486,58.825,-6860.448,-23783.291,0
1488767480.762,-220.491,107.154,-7589.231,-24733.621,0
1488767480.778,-53.926,22.426,-6786.732,-24135.021,0
1488767480.778,-49.391,31.490,-6931.844,-24011.281,0
1488767480.792,-206.302,112.681,-7311.758,-24683.484,0
1488767480.792,-103.083,45.909,-7173.907,-23994.889,0
1488767480.792,-24.420,20.302,-6852.424,-23673.131,0
1488767480.792,-156.057,83.366,-7073.343,-23863.598,0
1488767480.807,-191.526,69.360,-6510.812,-24063.494,0
1488767480.807,-35.163,9.799,-6426.655,-23706.770,0
1488767480.822,-86.811,62.862,-6902.190,-23807.471,0
1488767480.822,-240.719,83.359,-7574.554,-24751.426,0
1488767480.822,-69.762,10.857,-6790.175,-24145.309,0
1488767480.822,-53.847,30.605,-6969.215,-24028.588,0
1488767480.838,-223.990,103.726,-7305.152,-24698.830,0
1488767480.838,-97.456,59.468,-7108.368,-23955.266,0
1488767480.852,-31.221,17.656,-6858.099,-23670.508,0
1488767480.852,-151.773,92.635,-7109.383,-23874.414,0
1488767480.852,-183.584,69.904,-6462.008,-24048.145,0
1488767480.852,-38.063,8.069,-6378.165,-23691.895,0
1488767480.867,-105.998,52.157,-6932.658,-23813.936,0
1488767480.867,-218.801,112.117,-7598.809,-24754.961,0
1488767480.882,-39.834,29.981,-6663.506,-24071.213,0
1488767480.882,-29.723,47.138,-6906.835,-23970.266,0
1488767480.882,-213.879,111.597,-7399.556,-24727.611,0
1488767480.882,-110.701,45.692,-7073.947,-23962.975,0
1488767480.897,-46.904,8.031,-6812.489,-23661.320,0
1488767480.897,-167.426,76.257,-7189.972,-23911.875,0
1488767480.897,-184.644,74.559,-574.430,-522.640,0
1488767480.913,-31.842,15.053,-435.442,-120.995,0
1488767480.913,-89.451,62.069,-1065.406,-280.988,0
1488767480.927,-191.483,133.724,-1703.904,-1211.684,0
1488767480.927,-26.462,41.797,-1701.280,-511.689,0
1488767480.927,-15.924,57.604,-1980.886,-422.214,0
1488767480.927,-215.026,113.188,-2513.905,-1202.664,0
1488767480.942,-109.768,43.024,-2110.779,-408.075,0
1488767480.942,-7.959,30.985,-1831.403,-71.539,0
1488767480.957,-165.098,88.260,-2302.417,-375.323,0
1488767480.957,-185.637,69.093,-1538.062,-522.043,0
1488767480.957,-14.935,18.159,-1347.377,-81.758,0
1488767480.957,-74.209,70.594,-2037.905,-265.563,0
1488767480.973,-237.052,93.383,-2742.932,-291.862,0
1488767480.973,-63.840,8.884,-2666.184,452.941,0
1488767480.987,-43.400,30.162,-2977.471,540.146,0
1488767480.987,-243.724,92.879,-3592.969,-286.125,0
1488767480.987,-111.195,41.586,-3084.804,567.289,0
1488767480.987,-36.956,7.470,-2823.951,892.310,0
1488767481.003,-168.986,94.515,-3338.091,580.997,0
1488767481.003,-144.308,116.178,-2501.361,485.645,0
1488767481.017,4.617,42.726,-2283.035,929.924,0
1488767481.017,-74.071,90.887,-3050.440,711.611,0
1488767481.019,-225.615,110.864,-3803.779,655.984,0
1488767481.019,-34.198,36.167,-3613.001,1455.210,0
1488767481.033,-16.476,55.347,-3932.927,1552.064,0
1488767481.033,-225.290,107.932,-4643.444,674.672,0
1488767481.047,-93.542,51.018,-4055.616,1551.471,0
1488767481.047,-6.233,33.006,-3777.961,1902.575,0
1488767481.047,-184.424,81.032,-4424.032,1508.924,0
1488767481.047,-214.111,49.049,-3569.676,1367.302,0
1488767481.063,-10.330,20.771,-3269.992,1897.057,0
1488767481.063,-103.434,58.157,-4123.999,1641.229,0
1488767481.077,-257.690,84.881,-4853.844,1573.032,0
1488767481.077,-36.036,32.907,-4578.421,2431.853,0
1488767481.077,-34.160,42.723,-4984.043,2497.995,0
1488767481.077,-247.495,99.508,-5753.003,1577.512,0
1488767481.092,-100.796,38.581,-4885.659,1597.627,0
1488767481.092,-7.678,33.195,-4731.906,1932.975,0
1488767481.107,-156.103,126.036,-5671.059,1433.160,0
1488767481.107,-190.503,44.899,-5283.577,1409.793,0
1488767481.107,10.889,5.724,-4591.350,2206.490,0
1488767481.107,-65.955,98.621,-5088.236,1773.589,0
1488767481.123,-241.955,114.761,-5277.857,1396.226,0
1488767481.123,-26.953,9.527,-4986.536,1660.803,0
1488767481.137,5.073,73.859,-5683.204,1732.926,0
1488767481.137,-208.872,169.378,-6274.000,1438.835,0
1488767481.137,-130.418,-9.587,-5615.663,1597.019,0
1488767481.137,29.674,44.890,-5257.618,2169.151,0
1488767481.152,-113.732,183.350,-5800.128,1473.234,0
1488767481.152,-189.772,69.153,-5505.527,1302.530,0
1488767481.168,3.815,2.758,-4610.227,2183.133,0
1488767481.168,-39.437,130.077,-5141.012,1756.915,0
1488767481.168,-221.795,132.630,-5292.800,1378.003,0
1488767481.168,-42.753,-10.115,-4911.234,1687.605,0
1488767481.182,-4.159,58.017,-5688.790,1732.666,0
1488767481.182,-180.955,198.288,-6313.244,1437.864,0
1488767481.197,-92.800,18.780,-5537.191,1643.946,0
1488767481.197,38.850,56.274,-5238.008,2197.655,0
1488767481.197,-140.074,158.499,-5925.323,1405.204,0
1488767481.197,-191.505,63.386,-5541.005,1267.912,0
1488767481.213,25.590,18.956,-4634.471,2175.180,0
1488767481.213,-40.393,137.344,-5237.204,1719.518,0
1488767481.227,-267.278,101.714,-5380.835,1303.058,0
1488767481.227,-29.938,2.842,-4926.076,1677.266,0
1488767481.227,10.777,76.741,-5746.135,1702.905,0
1488767481.227,-218.367,164.507,-6407.189,1347.088,0
1488767481.242,-76.552,51.195,-5665.793,1595.075,0
1488767481.242,2.680,31.598,-5518.734,2043.835,0
1488767481.257,-148.255,131.463,-5835.826,1370.645,0
1488767481.257,-203.636,48.123,-5428.126,1333.228,0
1488767481.257,24.844,37.741,-4855.381,2097.549,0
1488767481.257,-55.945,108.064,-5234.524,1675.232,0
1488767481.273,-248.722,91.669,-5998.066,1471.307,0
1488767481.273,14.569,65.377,-5130.837,1649.365,0
1488767481.287,-17.430,67.922,-5915.645,1599.310,0
1488767481.287,-247.269,120.817,-6112.520,1417.787,0
1488767481.287,-116.311,16.938,-5547.655,1668.627,0
1488767481.287,21.547,42.308,-5401.988,2116.048,0
1488767481.302,-156.322,145.052,-5930.940,1370.054,0
1488767481.302,-192.846,47.235,-5428.842,1310.597,0
1488767481.317,12.850,14.328,-4627.626,2170.466,-1
1488767481.317,-32.975,140.304,-5258.533,1715.152,0
1488767481.317,-252.727,114.245,-5345.620,1315.009,0
1488767481.317,-43.860,-23.275,-4886.340,1690.717,0
1488767481.333,1.006,80.561,-5754.012,1712.216,0
1488767481.333,-213.803,176.600,-6435.260,1334.011,0
1488767481.347,-96.959,7.298,-5499.801,1643.370,0
1488767481.347,26.838,37.279,-5257.771,2182.160,0
1488767481.347,-131.110,160.234,-6036.591,1346.121,0
1488767481.347,-178.461,69.063,-5450.809,1292.420,0
1488767481.363,15.833,16.689,-4576.523,2191.561,0
1488767481.363,-44.888,143.519,-5296.169,1691.577,0
1488767481.377,-237.284,120.817,-5345.263,1306.394,0
1488767481.377,-31.415,-17.742,-4862.885,1698.371,0
1488767481.377,-11.446,59.960,-5786.550,1684.193,0
1488767481.377,-259.738,133.829,-6505.453,1287.947,0
1488767481.392,-124.333,-6.994,-6452.752,1651.497,0
1488767481.392,-0.391,15.395,-6264.715,2159.231,0
1488767481.407,-126.736,179.265,-7052.319,1350.261,0
1488767481.407,-228.884,26.378,-6436.625,1261.330,0
1488767481.407,-7.053,-3.358,-5571.978,2188.528,0
1488767481.407,-56.648,109.633,-6345.546,1650.240,0
1488767481.423,-251.056,99.749,-7314.700,1301.992,0
1488767481.423,-48.138,-23.601,-6791.744,1709.071,0
1488767481.437,-6.590,70.561,-7739.895,1706.793,0
1488767481.437,-253.146,139.661,-8468.375,1295.786,0
1488767481.437,-95.927,2.676,-8377.837,1666.303,0
1488767481.437,20.835,21.908,-8220.876,2177.317,0
1488767481.452,-187.792,144.467,-9058.370,1303.639,0
1488767481.452,-217.883,37.468,-8358.363,1274.924,0
1488767481.467,5.335,7.687,-7511.342,2211.259,0
1488767481.467,-77.537,107.683,-8321.613,1653.460,0
1488767481.467,-280.689,90.098,-9275.681,1289.590,0
1488767481.467,-15.876,-3.108,-8729.279,1741.226,0
1488767481.483,-36.210,37.752,-8754.625,1683.983,0
1488767481.483,-234.570,152.958,-9436.641,1304.125,0
1488767481.497,-141.138,-23.876,-9362.027,1661.684,0
1488767481.497,10.917,27.542,-9194.111,2204.282,0
1488767481.497,-159.417,156.006,-10030.944,1310.682,0
1488767481.497,-197.564,31.681,-9329.980,1290.456,0
1488767481.512,18.593,25.768,-8488.438,2221.304,0
1488767481.512,-71.561,102.561,-9313.130,1641.717,0
1488767481.527,-279.107,81.674,-10247.656,1282.054,0
1488767481.527,-65.822,-26.787,-9730.636,1710.888,0
1488767481.527,-21.061,59.689,-9741.986,1677.431,0
1488767481.527,-241.240,151.610,-10429.429,1278.215,0
1488767481.543,-111.572,-4.710,-10311.339,1681.708,0
1488767481.543,6.090,19.672,-10190.535,2156.348,0
1488767481.557,-100.029,187.625,-11000.197,1334.553,0
1488767481.557,-203.333,50.719,-10289.173,1294.005,0
1488767481.557,-9.361,7.792,-9493.608,2199.246,0
1488767481.557,-63.070,122.130,-10296.752,1651.385,0
1488767481.573,-326.849,65.291,-11228.667,1262.087,0
1488767481.573,5.455,11.530,-10679.663,1746.724,0
1488767481.587,-14.872,49.073,-10738.245,1682.551,0
1488767481.587,-262.240,142.625,-11394.915,1284.289,0
1488767481.587,-121.378,15.408,-11273.239,1704.226,0
1488767481.587,-12.381,1.066,-11206.114,2148.554,0
1488767481.602,-162.029,148.285,-12038.152,1291.664,0
1488767481.602,-170.538,69.269,-11231.397,1335.614,0
1488767481.617,-35.409,-23.597,-10477.679,2183.507,0
1488767481.617,-96.560,100.888,-11293.015,1615.962,0
1488767481.617,-201.263,142.728,-12141.351,1346.480,0
1488767481.617,-60.405,-21.196,-11680.051,1730.180,0
1488767481.632,-42.938,38.076,-11744.325,1644.413,0
1488767481.632,-245.461,150.181,-12367.172,1294.688,0
1488767481.647,-102.004,3.951,-12271.559,1678.321,0
1488767481.647,78.085,67.924,-12150.919,2199.280,0
1488767481.647,-179.553,150.013,-12980.384,1312.000,0
1488767481.647,-181.494,62.701,-12199.009,1331.782,0
1488767481.662,-3.353,11.068,-11462.225,2194.583,0
1488767481.662,-39.634,130.410,-12267.720,1653.303,0
1488767481.677,-239.397,114.673,-13102.597,1335.064,0
1488767481.677,-73.919,-34.519,-12679.766,1709.422,0
1488767481.677,-22.553,59.855,-12703.017,1682.188,0
1488767481.677,-224.841,141.862,-13324.202,1304.989,0
1488767481.693,-98.202,20.210,-13210.183,1719.668,0
1488767481.693,-14.786,2.124,-13159.928,2135.427,0
1488767481.707,-179.566,122.704,-13975.281,1300.976,0
1488767481.707,-219.224,33.205,-13164.687,1321.914,0
1488767481.707,-25.069,-30.418,-12469.826,2170.649,0
1488767481.707,-83.381,95.270,-13255.890,1632.002,0
1488767481.722,-201.532,130.005,-14031.642,1374.256,0
1488767481.722,-9.060,18.152,-13600.396,1779.211,0
1488767481.737,-18.260,68.694,-13663.350,1679.946,0
1488767481.737,-256.593,127.473,-14261.682,1326.432,0
1488767481.737,-133.971,-7.781,-14174.753,1699.915,0
1488767481.737,50.749,55.399,-14098.312,2201.367,0
1488767481.752,-142.548,160.223,-14885.336,1354.149,0
1488767481.752,-195.602,38.325,-14105.019,1357.314,0
1488767481.767,6.522,7.328,-13405.191,2215.107,0
1488767481.767,-87.454,95.397,-14218.665,1638.961,0
1488767481.767,-267.878,92.233,-14972.895,1380.664,0
1488767481.767,-26.174,7.618,-14602.631,1764.750,0
1488767481.783,11.807,81.924,-14663.891,1694.279,0
1488767481.783,-208.933,175.614,-15165.142,1377.947,0
1488767481.797,-117.640,-3.164,-14184.863,1727.469,0
1488767481.797,19.272,37.199,-14152.444,2164.052,0
1488767481.797,-112.818,198.031,-14883.938,1353.062,0
1488767481.797,-200.567,40.757,-14105.601,1364.781,0
1488767481.812,29.124,32.840,-13471.506,2200.568,0
1488767481.812,-54.904,136.680,-14247.895,1638.869,0
1488767481.827,-227.825,135.020,-14964.306,1395.966,0
1488767481.827,2.128,18.559,-14657.381,1741.636,0
1488767481.827,1.750,76.503,-14742.083,1639.525,0
1488767481.827,-231.100,152.500,-15194.326,1349.044,0
1488767481.843,-121.698,-14.804,-14256.795,1686.403,0
1488767481.843,13.789,26.680,-14247.574,2106.145,0
1488767481.857,-191.711,118.658,-14961.113,1268.961,0
1488767481.857,-241.272,13.585,-14133.098,1332.504,0
1488767481.857,-19.326,-15.328,-13595.751,2113.595,0
1488767481.857,-76.210,103.711,-14297.521,1583.322,0
1488767481.872,-261.716,89.425,-14950.938,1381.656,0
1488767481.872,-40.526,-12.155,-14752.534,1688.853,0
1488767481.887,-18.671,65.259,-14784.405,1603.258,0
1488767481.887,-240.171,153.504,-15162.939,1342.392,0
1488767481.887,-111.853,-7.566,-14263.315,1687.302,0
1488767481.887,1.326,26.170,-13318.137,2075.255,0
1488767481.902,-169.438,142.408,-13925.635,1295.325,0
1488767481.902,-190.228,42.156,-13089.264,1380.272,0
1488767481.902,6.502,17.299,4052.443,2130.391,0
1488767481.918,-79.363,105.181,3352.409,1580.158,0
1488767481.918,-275.229,80.819,2760.529,1406.283,0
1488767481.932,-31.602,-6.163,2900.436,1693.662,0
1488767481.932,-38.936,46.840,2866.807,1596.552,0
1488767481.932,-256.512,135.085,2574.526,1372.053,0
1488767481.932,-101.869,4.933,3417.580,1722.080,0
1488767481.947,0.464,29.558,4336.733,2079.814,0
1488767481.947,-184.336,128.391,3772.379,1314.074,0
1488767481.962,-197.635,35.140,4614.184,1420.236,0
1488767481.962,20.500,27.986,5027.108,2140.154,0
1488767481.962,-94.120,94.255,4342.747,1580.224,0
1488767481.962,-258.466,84.789,3826.477,1455.303,0
1488767481.978,-32.668,2.919,3840.443,1682.347,0
1488767481.978,-18.743,69.510,3818.696,1581.994,0
1488767481.992,-239.539,140.274,3623.533,1416.164,0
1488767481.992,-105.682,7.164,4385.371,1725.133,0
1488767481.992,3.906,26.550,5264.788,2058.001,0
1488767481.992,-175.500,134.186,4775.321,1324.532,0
1488767482.007,-195.834,42.308,5618.173,1439.951,0
1488767482.007,-7.095,2.134,5928.616,2082.950,0
1488767482.022,-88.355,99.309,5287.265,1558.182,0
1488767482.022,-269.277,76.739,4842.082,1462.759,0
1488767482.022,-38.908,-9.058,5757.985,1665.258,0
1488767482.022,-20.532,56.257,5727.490,1560.312,0
1488767482.037,-246.149,134.188,5602.315,1413.663,0
1488767482.037,-115.707,-2.999,6326.990,1713.306,0
1488767482.052,-3.774,29.326,7171.600,2024.314,0
1488767482.052,-181.572,122.100,6719.951,1299.671,0
1488767482.052,-217.572,22.806,7604.413,1435.704,0
1488767482.052,-5.032,1.339,7853.690,2071.560,0
1488767482.068,-92.867,101.286,7226.393,1539.964,0
1488767482.068,-280.416,65.918,6823.239,1457.540,0
1488767482.082,-47.859,-14.386,7702.780,1658.857,0
1488767482.082,-44.720,41.027,7638.267,1524.250,0
1488767482.082,-260.800,119.656,7545.229,1394.296,0
1488767482.082,-95.745,12.321,8324.966,1735.134,0
1488767482.097,21.301,49.610,9132.364,2040.166,0
1488767482.097,-201.519,105.961,8642.485,1271.923,0
1488767482.112,-212.365,26.843,9577.855,1440.067,0
1488767482.112,13.247,21.469,9843.383,2095.920,0
1488767482.112,-90.913,98.632,9171.756,1541.349,0
1488767482.112,-244.410,96.366,8819.499,1493.355,0
1488767482.128,-31.937,-2.394,9696.171,1685.599,0
1488767482.128,-15.319,69.104,9627.704,1560.099,0
1488767482.142,-267.807,112.014,9502.578,1382.854,0
1488767482.142,-117.637,-10.879,10290.397,1734.493,0
1488767482.142,-8.680,24.730,11092.163,2028.611,0
1488767482.142,-164.118,140.373,10631.045,1304.380,0
1488767482.157,-175.607,55.403,11595.319,1484.562,0
1488767482.157,-1.995,11.437,11799.300,2091.722,0
1488767482.172,-84.939,102.793,11136.055,1545.087,0
1488767482.172,-213.909,119.078,10834.902,1528.807,0
1488767482.172,-17.432,6.709,11686.543,1712.128,0
1488767482.172,-33.005,52.256,11551.537,1531.349,0
1488767482.188,-220.239,153.201,11508.595,1425.453,0
1488767482.188,-85.657,11.321,12280.037,1764.623,0
1488767482.202,6.320,37.969,13030.828,2031.392,0
1488767482.202,-153.426,154.028,12580.117,1296.801,0
1488767482.202,-169.560,60.841,12602.174,1506.929,0
1488767482.202,-13.911,-0.052,12724.676,2061.105,0
1488767482.217,-72.440,115.150,12077.928,1525.013,0
1488767482.217,-238.387,96.712,11816.067,1510.858,0
1488767482.232,-27.253,-5.903,12626.132,1689.571,0
1488767482.232,-6.259,77.652,12530.054,1545.712,0
1488767482.232,-216.277,160.926,12521.979,1431.836,0
1488767482.232,-61.304,38.934,13298.425,1800.842,0
1488767482.247,26.877,56.199,14000.320,2027.837,0
1488767482.247,-143.102,168.944,13611.296,1328.038,0
1488767482.262,-156.573,70.028,13644.370,1533.477,0
1488767482.262,17.458,26.783,13715.317,2084.261,0
1488767482.262,-81.418,113.390,13059.238,1525.632,0
1488767482.262,-244.761,99.365,12872.942,567.537,0
1488767482.278,-17.579,13.722,13612.169,727.753,0
1488767482.278,-15.779,72.982,13473.123,539.251,0
1488767482.292,-236.964,140.388,12574.209,460.829,0
1488767482.292,-107.281,1.380,13265.969,789.579,0
1488767482.292,3.018,32.920,13943.206,1022.958,0
1488767482.292,-152.191,151.260,13605.994,335.254,0
1488767482.307,-169.589,50.204,13680.069,574.258,0
1488767482.307,39.880,46.655,13692.816,1120.401,0
1488767482.322,-75.406,116.365,13034.808,536.520,0
1488767482.322,-228.196,103.459,12942.634,-371.423,0
1488767482.322,-44.232,-2.560,13547.677,-286.779,0
1488767482.322,-27.135,68.549,13406.806,-473.251,0
1488767482.338,-224.732,143.472,12626.326,-490.925,0
1488767482.338,-98.670,4.849,13280.089,-167.131,0
1488767482.352,1.468,36.299,13873.575,1.107,0
1488767482.352,-179.659,129.320,13578.814,-682.599,0
1488767482.352,-173.314,43.489,13707.638,-402.909,0
1488767482.352,-0.469,11.977,14593.382,86.478,0
1488767482.367,-73.876,110.899,14011.988,-439.666,0
1488767482.367,-241.057,95.730,13962.518,-1341.891,0
1488767482.382,-34.609,5.341,14497.393,-1267.151,0
1488767482.382,-32.599,70.880,14345.934,-1475.729,0
1488767482.382,-238.507,144.772,13630.692,-2453.447,0
1488767482.382,-101.564,9.372,14262.514,-2120.710,0
1488767482.397,9.770,43.669,14825.624,-1965.211,0
1488767482.397,-161.854,145.908,14560.671,-2634.503,0
1488767482.412,-184.674,37.122,14708.586,-2346.817,0
1488767482.412,-12.510,10.812,15530.042,-1898.936,0
1488767482.427,-66.776,136.748,14955.425,-2429.605,0
1488767482.427,-235.655,99.042,14006.015,-3285.713,0
1488767482.427,-37.973,-0.963,14514.508,-3230.873,0
1488767482.427,-27.021,69.476,14345.498,-3441.415,0
1488767482.442,-233.100,141.355,13649.072,-4412.936,0
1488767482.442,-90.354,14.524,14290.288,-4064.226,0
1488767482.442,-7.143,27.810,14812.223,-3943.724,0
1488767482.442,-168.580,142.664,14572.753,-4599.448,0
1488767482.457,-178.124,41.829,14757.689,-4285.875,0
1488767482.457,-1.109,25.508,15547.939,-3839.972,0
1488767482.472,-83.970,121.719,14932.386,-4406.312,0
1488767482.472,-238.305,95.203,14040.355,-5234.509,0
1488767482.472,-34.639,6.003,14530.494,-5171.057,0
1488767482.472,-21.645,75.757,14335.432,-5399.426,0
1488767482.488,-230.125,141.667,13665.298,-6377.593,0
1488767482.488,-90.558,6.608,14301.823,-6026.250,0
1488767482.502,-2.250,39.136,14800.437,-5907.578,0
1488767482.502,-173.836,137.258,14556.520,-6577.532,0
1488767482.502,-195.640,33.928,14766.375,-6253.875,0
1488767482.502,7.824,24.650,15546.352,-5808.201,0
1488767482.517,-86.025,117.693,14916.646,-6386.457,0
1488767482.517,-234.589,92.486,14061.503,-7197.757,0
1488767482.532,-27.359,0.039,14521.554,-7132.512,0
1488767482.532,-18.565,77.936,14318.350,-7370.194,0
1488767482.532,-238.217,138.610,13684.385,-8335.964,0
1488767482.532,-96.517,5.144,14310.195,-7982.915,0
1488767482.548,-10.131,30.417,14783.489,-7873.529,0
1488767482.548,-170.046,140.914,14561.126,-8532.327,0
1488767482.562,-180.757,38.859,14798.914,-8192.144,0
1488767482.562,-3.734,14.228,15525.463,-7775.801,0
1488767482.562,-87.658,107.253,14908.884,-8342.904,0
1488767482.562,-252.823,66.727,14081.383,-9144.515,0
1488767482.577,-31.041,2.274,14500.997,-9106.258,0
1488767482.577,-26.772,70.267,14285.325,-9351.445,0
1488767482.592,-247.961,126.192,13669.113,-10306.728,0
1488767482.592,-119.340,-13.265,14287.993,-9958.504,0
1488767482.592,-27.520,22.752,14755.599,-9859.174,0
1488767482.592,-181.533,130.014,14548.285,-10514.206,0
1488767482.607,-196.343,21.800,14799.979,-10162.134,0
1488767482.607,-18.976,4.465,15499.438,-9754.105,0
1488767482.622,-100.816,103.275,14868.925,-10333.435,0
1488767482.622,-259.590,71.277,14084.051,-11119.614,0
1488767482.622,-46.695,-9.711,14492.454,-11072.489,0
1488767482.622,-48.426,56.745,14257.161,-11327.565,0
1488767482.637,-257.277,120.797,13687.896,-12261.418,0
1488767482.637,-95.633,6.307,14324.269,-11884.210,0
1488767482.652,-1.745,36.632,14763.200,-11800.532,0
1488767482.652,-175.257,138.554,14545.448,-12468.586,0
1488767482.653,-190.393,34.832,14822.341,-12108.563,0
1488767482.653,-9.922,9.976,15485.947,-11718.509,0
1488767482.667,-90.584,106.890,14864.188,-12291.304,0
1488767482.667,-268.117,61.495,14087.340,-13086.893,0
1488767482.682,-79.725,-44.078,14455.505,-13065.454,0
1488767482.682,-89.385,18.713,14188.346,-13342.666,0
1488767482.682,-274.159,103.367,13676.989,-14236.727,0
1488767482.682,-71.623,34.568,14349.612,-13818.881,0
1488767482.698,13.301,63.322,14752.958,-13751.172,0
1488767482.698,-165.519,145.583,14535.711,-14430.252,0
1488767482.712,-167.284,51.510,14855.591,-14037.062,0
1488767482.712,4.002,23.939,15487.242,-13665.030,0
1488767482.712,-100.745,100.052,14834.200,-14267.397,0
1488767482.712,-237.861,86.091,14118.204,-15023.115,0
1488767482.727,-37.831,-5.122,14488.624,-14985.711,0
1488767482.727,-44.211,52.721,14225.238,-15267.292,0
1488767482.742,-242.138,126.216,13708.525,-16176.896,0
1488767482.742,-79.054,18.612,14341.416,-15792.929,0
1488767482.742,6.823,47.676,14748.659,-15721.103,0
1488767482.742,-171.633,139.291,14530.676,-16396.895,0
1488767482.757,-172.838,44.791,14864.639,-16001.638,0
1488767482.757,-5.621,12.564,15488.516,-15627.396,0
1488767482.772,-93.367,99.096,14832.471,-16227.788,0
1488767482.772,-247.862,81.059,14147.803,-16965.033,0
1488767482.772,-56.669,-17.039,14488.663,-16948.301,0
1488767482.772,-36.804,60.798,14221.900,-17215.721,0
1488767482.787,-253.247,120.653,13702.226,-18139.465,0
1488767482.787,-118.037,-13.826,14321.791,-17775.475,0
1488767482.802,-37.736,6.872,14704.489,-17724.871,0
1488767482.802,-193.884,118.547,14487.590,-18393.482,0
1488767482.802,-198.955,17.342,14869.536,-17979.721,0
1488767482.802,-21.734,-2.644,15477.310,-17610.600,0
1488767482.817,-109.914,93.929,14807.303,-18213.396,0
1488767482.817,-251.671,77.560,14153.841,-18939.262,0
1488767482.832,-47.351,-12.201,14503.333,-18902.594,0
1488767482.832,-46.478,53.518,14201.553,-19199.867,0
1488767482.832,-235.290,129.006,13719.663,-20101.666,0
1488767482.832,-102.410,-0.166,14355.033,-19709.977,0
1488767482.847,-7.452,36.000,14724.899,-19658.709,0
1488767482.847,-179.311,136.620,14509.788,-20326.670,0
1488767482.862,-180.411,33.769,14902.386,-19908.266,0
1488767482.862,-9.563,10.952,15478.485,-19552.166,0
1488767482.862,-92.263,108.895,14804.126,-20159.814,0
1488767482.862,-242.525,82.622,14178.126,-20882.752,0
1488767482.877,-37.487,-5.150,14511.436,-20849.449,0
1488767482.877,-37.726,59.900,14192.853,-21152.789,0
1488767482.892,-230.735,141.881,13729.834,-22046.336,-81185420
1488767482.892,-85.116,10.689,14375.615,-21652.912,0
1488767482.892,-13.421,31.959,14711.764,-21625.104,0
1488767482.892,-173.791,140.744,14498.985,-22299.199,0
1488767482.907,-170.240,43.005,14921.487,-21858.158,0
1488767482.907,-8.368,16.145,15470.974,-21518.416,0
1488767482.907,-94.260,110.219,-897.782,417.489,0
1488767482.922,-228.945,92.705,-1496.551,-288.152,0
1488767482.922,-37.378,-2.435,-1183.923,-267.681,0
1488767482.937,-36.651,65.278,-1509.646,-574.671,0
1488767482.937,-238.688,132.239,-1968.730,-1477.576,0
1488767482.937,-91.285,10.977,-1311.231,-1072.910,0
1488767482.937,-6.623,44.451,-983.158,-1039.963,0
1488767482.952,-174.975,140.815,-1208.461,-1725.262,0
1488767482.952,-179.235,34.856,-753.657,-1272.078,0
1488767482.967,-4.325,19.941,-215.443,-925.706,0
1488767482.967,-101.278,104.828,-924.662,-1563.100,0
1488767482.967,-243.017,79.254,-1493.333,-2261.605,0
1488767482.967,-36.112,1.060,-1183.143,-2225.315,0
1488767482.983,-40.784,68.949,-1526.141,-2542.889,0
1488767482.983,-236.403,132.480,-1955.455,-3433.613,0
1488767482.997,-86.495,12.673,-1296.419,-3020.723,0
1488767482.997,2.094,46.521,-984.271,-2994.093,0
1488767482.997,-167.518,147.417,-1210.131,-3685.013,0
1488767482.997,-161.307,52.379,-717.576,-3206.525,0
1488767483.012,-2.715,18.167,-218.855,-2881.473,0
1488767483.012,-99.081,107.803,-929.638,-3521.190,0
1488767483.027,-244.425,81.997,-1465.854,-4209.717,0
1488767483.027,-38.272,-8.108,-1183.044,-4188.738,0
1488767483.027,-28.782,67.313,-1533.791,-4503.492,0
1488767483.027,-231.526,135.306,-1949.036,-5390.734,0
1488767483.042,-82.975,14.253,-1289.192,-4973.708,0
1488767483.042,7.689,49.028,-994.363,-4951.921,0
1488767483.057,-169.477,138.922,-1225.148,-5652.939,0
1488767483.057,-164.830,43.222,-711.486,-5166.922,0
1488767483.057,-1.623,17.574,-233.173,-4848.026,0
1488767483.057,-87.035,114.626,-947.891,-5484.277,0
1488767483.072,-224.353,100.141,-1433.277,-6141.960,0
1488767483.072,-24.289,9.277,-1169.852,-6123.057,0
1488767483.087,-30.145,76.301,-1550.087,-6465.370,0
1488767483.087,-233.948,132.469,-1946.393,-7351.876,0
1488767483.087,-75.340,17.299,-1273.614,-6915.039,0
1488767483.087,2.934,42.829,-1013.356,-5944.642,0
1488767483.102,-172.146,143.816,-1241.157,-6641.097,0
1488767483.102,-169.156,34.809,-701.588,-6146.542,0
1488767483.117,4.217,20.871,-230.696,-5823.229,0
1488767483.117,-88.114,113.083,-968.817,-6470.154,0
1488767483.117,-220.892,96.086,-1421.671,-7114.325,0
1488767483.117,-26.781,2.382,-1168.919,-7112.132,0
1488767483.132,-37.313,64.826,-1559.177,-7454.860,0
1488767483.132,-234.817,132.437,-1941.414,-8340.547,0
1488767483.147,-100.336,-9.166,-1279.401,-7919.978,0
1488767483.147,-0.108,44.092,-1010.736,-7904.516,0
1488767483.147,-182.081,137.049,-1241.144,-8614.846,0
1488767483.147,-163.690,43.517,-662.291,-8084.197,0
1488767483.162,5.176,19.186,-227.328,-7779.809,0
1488767483.162,-94.590,112.517,-971.826,-8442.332,0
1488767483.177,-226.298,90.074,-1406.305,-9082.913,0
1488767483.177,-25.250,0.791,-1167.084,-9070.816,0
1488767483.177,-23.487,72.165,-1562.220,-9411.559,0
1488767483.177,-228.235,137.417,-1927.952,-10290.076,0
1488767483.193,-83.357,5.268,-1250.886,-9852.528,0
1488767483.193,4.013,45.548,-1008.056,-8884.614,0
1488767483.207,-175.813,139.036,-1241.018,-9589.889,0
1488767483.207,-170.149,25.762,-652.700,-9068.458,0
1488767483.207,-3.478,8.102,-233.747,-8769.163,0
1488767483.207,-82.992,120.589,-976.866,-9414.472,0
1488767483.222,-217.928,103.535,-1374.888,-10035.924,0
1488767483.222,-36.133,-2.214,-1162.449,-9064.139,0
1488767483.237,-37.083,65.132,-1572.850,-9423.046,0
1488767483.237,-218.304,155.643,-1904.243,-10276.846,0
1488767483.237,-85.229,10.894,-1232.050,-9842.919,0
1488767483.237,-9.483,45.434,-1016.207,-8890.256,0
1488767483.252,-191.747,134.558,-1250.456,-9595.089,0
1488767483.252,-161.485,43.981,-624.649,-9055.143,0
1488767483.267,10.533,21.822,-221.662,-8757.900,0
1488767483.267,-92.819,110.149,-995.724,-9429.969,0
1488767483.267,-241.420,82.265,-1373.716,-10054.049,0
1488767483.267,-31.101,2.590,-1144.443,-10033.011,0
1488767483.282,-28.481,83.927,-1572.908,-10396.446,0
1488767483.282,-235.204,133.531,-1915.838,-11271.287,0
1488767483.297,-99.227,-2.078,-1235.594,-10828.018,0
1488767483.297,-8.462,39.946,-1029.411,-9875.438,0
1488767483.297,-171.712,147.182,-1264.737,-10580.199,0
1488767483.297,-175.291,31.918,-623.750,-10038.356,0
1488767483.312,-13.250,9.116,-239.021,-9754.729,0
1488767483.312,-118.495,97.851,-1029.247,-10445.417,0
1488767483.327,-244.612,75.826,-1381.534,-11049.055,0
1488767483.327,-34.517,-3.231,-1164.349,-11025.237,0
1488767483.327,-31.812,76.356,-1600.133,-11389.481,0
1488767483.327,-236.855,139.502,-1926.462,-12259.692,0
1488767483.342,-93.582,0.303,-1231.067,-11802.368,0
1488767483.342,-10.113,41.522,-1036.848,-10851.344,0
1488767483.357,-182.271,135.186,-1279.545,-11575.007,0
1488767483.357,-173.316,31.090,-611.376,-11014.061,0
1488767483.357,-5.449,17.413,-247.497,-10728.738,0
1488767483.357,-97.746,112.902,-1031.986,-11415.878,0
1488767483.372,-233.130,82.844,-1366.917,-12009.624,0
1488767483.372,-39.267,-8.551,-1173.667,-12006.260,0
1488767483.387,-35.451,73.560,-1623.475,-12375.982,0
1488767483.387,-232.184,134.597,-1926.490,-13244.537,0
1488767483.387,-89.187,5.346,-1216.599,-12777.062,0
1488767483.387,-12.544,31.995,-1052.741,-11846.671,0
1488767483.402,-166.639,152.418,-1276.652,-12546.024,0
1488767483.402,-172.776,34.042,-597.731,-11980.071,0
1488767483.417,-14.202,3.918,-272.665,-11727.466,0
1488767483.417,-111.148,97.944,-1071.859,-12417.959,0
1488767483.417,-222.851,93.307,-1341.334,-12980.365,0
1488767483.417,-22.899,5.696,-1155.803,-12969.877,0
1488767483.432,-34.658,72.795,-1624.745,-13353.849,0
1488767483.432,-236.508,134.285,-1913.619,-14219.800,0
1488767483.447,-82.276,12.536,-1200.152,-13739.606,0
1488767483.447,-6.440,38.586,-1052.836,-12824.260,0
1488767483.447,-186.494,129.531,-1307.718,-13554.936,0
1488767483.447,-178.171,26.583,-578.645,-12964.374,0
1488767483.462,-15.334,5.397,-265.019,-12701.603,0
1488767483.462,-94.814,119.623,-1060.828,-13382.668,0
1488767483.477,-231.758,86.405,-1330.565,-13961.242,0
1488767483.477,-39.166,-6.345,-1165.581,-13959.812,0
1488767483.477,-35.406,69.012,-1641.132,-14351.622,0
1488767483.477,-235.090,129.732,-1914.754,-15207.057,0
1488767483.492,-78.270,12.501,-1196.893,-14720.565,0
1488767483.492,7.570,51.412,-1058.081,-13795.929,0
1488767483.507,-175.413,140.641,-1314.874,-14529.354,0
1488767483.507,-158.230,39.914,-557.097,-13920.746,0
1488767483.507,-6.040,15.212,-265.193,-13676.597,0
1488767483.507,-112.347,106.520,-1098.693,-14382.293,0
1488767483.522,-233.617,87.162,-1332.609,-14945.956,0
1488767483.522,-30.108,0.004,-1165.448,-14936.039,0
1488767483.537,-39.712,67.051,-1673.412,-15342.937,0
1488767483.537,-254.547,115.914,-1939.577,-16209.191,0
1488767483.537,-99.197,-9.660,-1212.614,-15714.568,0
1488767483.537,1.337,46.145,-1079.816,-14787.760,0
1488767483.552,-167.306,150.707,-1317.352,-15510.709,0
1488767483.552,-150.565,44.826,-545.902,-14897.345,0
1488767483.567,2.227,19.578,-275.273,-14655.140,0
1488767483.567,-73.510,137.043,-1097.311,-15354.878,0
1488767483.567,-201.964,113.167,-1298.465,-15903.746,0
1488767483.567,-6.201,22.886,-1158.124,-14930.099,0
1488767483.582,-7.255,103.247,-1675.928,-15342.624,0
1488767483.582,-190.761,179.902,-1908.819,-16189.697,0
1488767483.597,-23.099,63.184,-1164.708,-15676.057,0
1488767483.597,59.233,112.627,-1077.431,-14790.466,0
1488767483.597,-94.223,226.879,-1314.889,-15510.640,0
1488767483.597,-52.110,147.777,-497.248,-14870.012,0
1488767483.612,107.440,126.130,-240.004,-14631.419,0
1488767483.612,16.889,238.419,-1082.480,-15346.820,0
1488767483.627,-95.667,219.431,-1251.890,-15876.989,0
1488767483.627,99.521,136.581,-1108.912,-15874.751,0
1488767483.627,95.366,209.810,-1649.862,-16297.554,0
1488767483.627,-105.994,273.589,-1858.051,-17128.455,0
1488767483.642,41.984,144.259,-1119.352,-16629.775,0
1488767483.642,129.870,182.389,-1036.897,-15732.443,0
1488767483.657,-50.184,276.741,-1283.625,-16463.299,0
1488767483.657,-38.914,172.682,-444.611,-15812.359,0
1488767483.657,93.219,114.849,-222.582,-15595.986,0
1488767483.657,-23.204,191.017,-1099.622,-16338.247,0
1488767483.672,-162.923,159.019,-1252.236,-16873.727,0
1488767483.672,23.573,64.324,-1116.293,-16860.961,0
1488767483.687,0.987,121.846,-1662.404,-17290.926,0
1488767483.687,-208.806,166.611,-1872.284,-18136.670,0
1488767483.687,-66.206,33.313,-1138.465,-17629.137,0
1488767483.687,-13.258,38.083,-1076.934,-16750.289,0
1488767483.702,-195.032,131.519,-1335.713,-17494.027,0
1488767483.702,-179.872,26.551,-465.313,-16820.840,0
1488767483.717,-12.028,12.602,-243.658,-16589.652,0
1488767483.717,-119.269,99.096,-1116.966,-17322.318,0
1488767483.717,-261.176,57.796,-1244.440,-17855.793,0
1488767483.717,-64.007,-25.596,-1132.522,-17850.797,0
1488767483.732,-66.703,48.927,-1690.897,-18284.215,0
1488767483.732,-279.503,87.379,-1896.621,-19134.504,0
1488767483.747,-115.507,-25.947,-1141.552,-18608.439,0
1488767483.747,-30.172,17.295,-1084.562,-17726.734,0
1488767483.747,-212.634,108.349,-1359.934,-18486.723,0
1488767483.747,-204.569,-2.225,-476.991,-17816.688,0
1488767483.763,-47.237,-25.401,-281.306,-17602.992,0
1488767483.763,-147.818,67.735,-1166.761,-18347.188,0
1488767483.777,-260.793,56.231,-1241.080,-18837.109,0
1488767483.777,-53.032,-23.537,-1139.989,-18835.059,0
1488767483.777,-69.659,43.211,-1719.991,-19280.186,0
1488767483.777,-271.857,93.810,-1901.260,-20122.025,0
1488767483.792,-115.109,-23.552,-1140.858,-19592.105,0
1488767483.792,-29.422,17.088,-1099.471,-18711.496,0
1488767483.807,-214.981,104.644,-1370.542,-19471.705,0
1488767483.807,-175.407,18.873,-433.434,-18758.818,0
1488767483.807,-25.813,-8.016,-268.932,-18568.400,0
1488767483.807,-129.281,85.210,-1159.245,-19311.578,0
1488767483.822,-260.368,51.008,-1216.896,-19808.939,0
1488767483.822,-62.110,-35.488,-1130.689,-18830.648,0
1488767483.837,-57.430,52.465,-1706.937,-19264.195,0
1488767483.837,-261.004,106.307,-1874.455,-20098.975,0
1488767483.837,-102.771,-11.822,-1108.465,-19559.953,0
1488767483.837,-26.594,19.891,-1090.620,-18697.010,0
1488767483.852,-211.495,114.198,-1374.307,-19463.906,0
1488767483.852,-188.680,15.663,-423.375,-18764.607,0
1488767483.867,-22.447,-1.324,-264.877,-18560.986,0
1488767483.867,-118.323,94.932,-1168.126,-19313.285,0
1488767483.867,-246.736,68.592,-1194.402,-19787.859,0
1488767483.867,-47.641,-15.635,-1119.606,-18820.406,0
1488767483.882,-56.736,46.805,-1730.919,-19285.160,0
1488767483.882,-260.647,105.650,-1874.722,-20109.842,0
1488767483.897,-92.955,-11.865,-1101.870,-19565.807,0
1488767483.897,-9.621,33.495,-1102.386,-18706.205,0
1488767483.897,-195.771,126.055,-1372.309,-19470.932,0
1488767483.897,-181.826,11.854,-411.426,-18764.414,0
1488767483.912,-19.969,3.394,-277.401,-18566.504,0
1488767483.912,-111.428,106.972,-1181.137,-19320.205,0
1488767483.912,-239.279,71.879,-2168.916,-1166.432,0
1488767483.927,-36.455,-11.599,-2101.872,-192.291,0
1488767483.927,-51.762,60.564,-2721.813,-659.584,0
1488767483.942,-248.533,118.848,-2850.660,-1485.279,0
1488767483.942,-94.376,-2.463,-2080.527,-931.884,0
1488767483.943,-23.380,27.260,-2104.103,-96.437,0
1488767483.943,-202.798,128.265,-2378.043,-854.373,0
1488767483.957,-174.006,26.832,-2358.568,-128.972,0
1488767483.957,-8.731,16.704,-2228.417,68.152,0
1488767483.972,-111.286,108.775,-3161.769,-703.554,0
1488767483.972,-252.202,73.971,-4130.351,-1172.425,0
1488767483.972,-47.654,-10.962,-4073.349,-196.032,0
1488767483.972,-56.525,61.549,-4708.201,-666.284,0
1488767483.987,-269.770,105.256,-4827.369,-1497.316,0
1488767483.987,-92.254,2.797,-4034.482,-933.752,0
1488767484.002,-16.624,41.556,-4067.793,-92.138,0
1488767484.002,-189.377,138.111,-4338.985,-854.472,0
1488767484.002,-173.354,25.042,-4310.324,-127.310,0
1488767484.002,-10.087,17.551,-4205.471,61.677,0
1488767484.017,-111.625,110.658,-5153.475,-716.279,0
1488767484.017,-248.501,72.676,-6079.212,-1173.298,0
1488767484.032,-25.063,4.153,-6024.017,-1164.885,0
1488767484.032,-23.232,88.561,-6663.933,-1636.266,0
1488767484.032,-244.541,130.094,-6768.994,-2462.881,0
1488767484.032,-81.648,9.662,-5986.789,-1902.646,0
1488767484.047,-14.301,33.958,-6036.140,-1083.191,0
1488767484.047,-189.426,138.416,-6311.139,-1838.703,0
1488767484.062,-163.061,32.139,-6247.832,-1089.293,0
1488767484.062,-1.698,17.531,-6171.996,-923.950,0
1488767484.062,-112.810,104.194,-7131.587,-1710.653,0
1488767484.062,-241.171,70.018,-8030.722,-2148.726,0
1488767484.077,-33.624,-4.443,-8000.259,-1172.303,0
1488767484.077,-53.673,66.217,-8670.685,-1667.051,0
1488767484.092,-250.478,120.604,-8741.062,-2479.380,0
1488767484.092,-94.062,-4.746,-7966.650,-1919.930,0
1488767484.092,-18.425,35.565,-8027.600,-1099.760,0
1488767484.092,-191.563,133.499,-8306.532,-1868.976,0
1488767484.107,-174.444,18.767,-8224.623,-1106.640,0
1488767484.107,-14.015,13.224,-8163.631,-939.472,0
1488767484.122,-103.825,116.496,-9119.927,-1717.760,0
1488767484.122,-242.385,70.432,-9991.080,-2155.126,0
1488767484.122,-22.439,4.501,-9968.516,-1177.874,0
1488767484.122,-44.669,72.120,-10647.854,-1677.554,0
1488767484.138,-253.135,116.384,-10714.741,-2492.112,0
1488767484.138,-91.506,-1.068,-9922.614,-1916.768,0
1488767484.152,-7.970,46.652,-9995.591,-1098.180,0
1488767484.152,-193.536,136.938,-10277.818,-1882.307,0
1488767484.152,-159.243,38.456,-10151.987,-1085.923,0
1488767484.152,-1.414,26.578,-10112.766,-926.994,0
1488767484.167,-109.725,111.408,-10115.854,-1725.377,0
1488767484.167,-244.200,72.674,-10954.254,-2150.521,0
1488767484.182,-26.170,4.787,-10936.918,-2146.409,0
1488767484.182,-36.376,79.265,-11638.037,-2658.139,0
1488767484.182,-245.840,122.156,-11682.886,-3468.957,0
1488767484.182,-75.269,11.878,-10878.132,-2887.364,0
1488767484.197,-23.040,36.354,-10988.859,-2094.787,0
1488767484.197,-198.669,128.043,-11270.560,-2873.098,0
1488767484.212,-167.634,23.905,-11132.268,-2076.000,0
1488767484.212,8.981,26.477,-11092.018,-1903.693,0
1488767484.212,-119.765,104.302,-11111.431,-2720.843,0
1488767484.212,-237.669,75.789,-11904.832,-3106.998,0
1488767484.227,-12.630,14.705,-10926.072,-2138.235,0
1488767484.227,-31.658,81.980,-11634.828,-2650.777,0
1488767484.242,-245.824,120.612,-11663.884,-3463.592,0
1488767484.242,-66.942,15.038,-10851.242,-2868.535,0
1488767484.242,-2.614,45.071,-10972.572,-2073.281,0
1488767484.242,-185.738,138.735,-11249.773,-2850.391,0
1488767484.257,-167.366,27.013,-11097.218,-2056.984,0
1488767484.257,-2.943,23.932,-11086.041,-1902.812,0
1488767484.272,-114.441,111.485,-11108.679,-2711.166,0
1488767484.272,-233.878,77.298,-11873.978,-3102.557,0
1488767484.272,-24.603,-0.843,-10913.712,-2131.434,0
1488767484.272,-33.956,82.259,-11641.694,-2655.091,0
1488767484.287,-249.801,118.280,-11653.337,-3460.726,0
1488767484.287,-74.566,9.774,-10831.073,-2855.185,0
1488767484.302,-16.802,33.625,-10977.842,-2077.240,0
1488767484.302,-182.928,145.301,-11247.417,-2846.765,0
1488767484.302,-149.959,37.218,-11051.393,-2029.976,0
1488767484.302,2.279,18.862,-10089.230,-1895.462,0
1488767484.317,-112.988,110.196,-10127.875,-2713.366,0
1488767484.317,-241.326,65.003,-10877.841,-3099.346,0
1488767484.332,-28.722,-1.485,-9921.527,-2129.353,0
1488767484.332,-45.331,70.349,-10669.167,-2657.195,0
1488767484.332,-252.896,119.456,-11634.462,-3448.535,0
1488767484.332,-80.612,9.163,-10820.489,-2848.624,0
1488767484.347,-12.106,42.558,-10974.177,-2072.499,0
1488767484.347,-191.528,140.329,-11256.150,-2860.313,0
1488767484.362,-169.920,23.049,-11035.678,-2033.699,0
1488767484.362,-4.084,19.092,-10099.025,-1893.223,0
1488767484.362,-113.192,111.997,-10145.127,-2725.579,0
1488767484.362,-242.177,71.116,-10865.199,-3099.696,0
1488767484.377,-36.182,-7.848,-9925.241,-2130.006,0
1488767484.377,-49.933,72.064,-10679.111,-2665.679,0
1488767484.392,-230.234,130.210,-11610.440,-3433.705,0
1488767484.392,-75.969,3.977,-10816.397,-2843.442,0
1488767484.392,-19.936,32.126,-10981.402,-2078.339,0
1488767484.392,-196.575,133.341,-11272.928,-2874.874,0
1488767484.407,-159.327,26.518,-11018.601,-2013.925,0
1488767484.407,19.476,35.017,-10096.415,-1885.499,0
1488767484.422,-121.354,105.613,-10173.954,-2737.047,0
1488767484.422,-250.055,60.297,-10853.564,-3092.637,0
1488767484.422,-15.008,11.304,-9918.181,-3089.363,0
1488767484.422,-36.363,78.658,-10689.497,-3642.262,0
1488767484.437,-239.761,126.003,-11622.449,-4431.463,0
1488767484.437,-86.536,-4.654,-10812.849,-3825.841,0
1488767484.452,-1.896,44.853,-11002.129,-3059.821,0
1488767484.452,-176.740,145.761,-11278.829,-3850.085,0
1488767484.452,-152.964,37.610,-11005.911,-2988.373,0
1488767484.452,13.587,27.367,-10107.152,-2868.649,0
1488767484.467,-113.083,110.540,-10194.022,-3722.341,0
1488767484.467,-229.817,77.767,-10832.682,-4060.219,0
1488767484.482,-29.143,-3.968,-9936.195,-3103.288,0
1488767484.482,-29.282,83.985,-10711.473,-3650.589,0
1488767484.482,-233.061,129.075,-11622.251,-4427.512,0
1488767484.482,-81.006,-1.578,-10808.182,-3818.322,0
1488767484.497,-11.625,41.309,-11011.115,-3066.484,0
1488767484.497,-179.771,150.105,-11288.665,-3857.712,0
1488767484.512,-153.874,32.926,-10982.384,-2980.498,0
1488767484.512,-4.666,14.167,-10124.408,-2877.903,0
1488767484.512,-103.429,121.960,-10199.172,-3725.582,0
1488767484.512,-222.425,81.057,-10809.905,-4045.294,0
1488767484.527,-10.831,6.797,-9924.381,-3094.610,0
1488767484.527,-55.085,58.051,-10751.292,-3684.725,0
1488767484.542,-249.664,120.614,-11630.086,-4448.192,0
1488767484.542,-79.325,5.369,-10799.426,-3812.523,0
1488767484.542,-18.864,34.115,-11020.050,-3070.405,0
1488767484.542,-204.984,126.597,-11322.309,-3880.064,0
1488767484.557,-162.317,28.380,-10997.213,-2990.706,0
1488767484.557,-1.257,17.991,-10136.854,-2885.437,0
1488767484.572,-105.577,114.650,-10225.053,-3740.823,0
1488767484.572,-221.828,78.026,-10804.681,-4047.877,0
1488767484.572,-25.295,2.128,-9939.098,-3106.407,0
1488767484.572,-51.055,69.553,-10762.156,-3685.370,0
1488767484.587,-236.861,130.911,-11618.533,-4440.052,0
1488767484.587,-61.301,16.078,-10776.919,-3792.584,0
1488767484.602,-9.625,42.824,-11038.985,-3075.860,0
1488767484.602,-202.529,130.321,-11346.812,-3897.666,0
1488767484.602,-172.458,17.454,-10983.271,-2996.404,0
1488767484.602,-10.197,20.377,-10148.766,-2894.329,0
1488767484.617,-105.321,117.515,-10248.105,-3749.031,0
1488767484.617,-215.001,84.724,-10770.984,-4034.909,0
1488767484.632,-17.398,13.131,-9930.208,-3091.106,0
1488767484.632,-52.284,73.884,-10777.961,-3691.206,0
1488767484.632,-244.028,126.151,-11610.964,-4440.013,0
1488767484.632,-65.712,12.312,-10776.040,-3795.839,0
1488767484.647,-8.467,45.262,-11034.744,-3070.140,0
1488767484.647,-203.795,132.269,-11340.234,-3884.035,0
1488767484.662,-161.472,28.016,-10945.991,-2963.465,0
1488767484.662,-2.446,22.136,-10142.359,-2882.588,0
1488767484.662,-103.554,122.577,-10264.332,-3748.273,0
1488767484.662,-226.971,80.649,-10763.048,-4040.457,0
1488767484.677,-9.131,16.865,-9922.788,-3080.774,0
1488767484.677,-44.525,76.784,-10785.370,-3688.010,0
1488767484.692,-234.464,129.096,-11590.387,-4428.593,0
1488767484.692,-76.851,3.517,-10765.049,-3792.348,0
1488767484.692,-16.446,36.116,-11044.966,-3074.312,0
1488767484.692,-190.359,148.891,-11332.972,-3881.752,0
1488767484.707,-134.655,48.621,-10905.338,-2938.761,0
1488767484.707,11.581,34.574,-10124.509,-2865.483,0
1488767484.722,-115.864,119.535,-10265.391,-3753.807,0
1488767484.722,-228.199,76.915,-10750.131,-4037.336,0
1488767484.722,2.521,23.737,-9899.570,-3073.734,0
1488767484.722,-39.056,76.318,-10788.287,-3692.354,0
1488767484.737,-270.256,93.905,-11622.897,-4468.342,0
1488767484.737,-85.844,-4.735,-10762.255,-3797.343,0
1488767484.752,-24.579,29.910,-11061.391,-3090.305,0
1488767484.752,-191.595,136.252,-11337.358,-3887.854,0
1488767484.752,-159.512,20.513,-10901.935,-2946.848,0
1488767484.752,-3.373,14.975,-10143.044,-2885.306,0
1488767484.767,-118.095,109.327,-10286.458,-3766.098,0
1488767484.767,-230.845,64.272,-10735.938,-4028.186,0
1488767484.782,-17.512,1.083,-9919.115,-3085.389,0
1488767484.782,-56.127,64.510,-10810.087,-3702.723,0
1488767484.782,-260.063,107.819,-11603.491,-4451.395,0
1488767484.782,-85.124,-6.539,-10763.111,-3794.816,0
1488767484.797,-9.673,37.997,-11054.229,-3077.924,0
1488767484.797,-204.877,121.425,-11369.967,-3915.243,0
1488767484.812,-176.617,8.503,-10911.490,-2961.473,0
1488767484.812,-16.854,9.339,-10159.720,-2890.836,0
1488767484.812,-104.828,123.146,-10297.932,-3767.977,0
1488767484.812,-241.513,68.438,-10730.623,-4035.552,0
1488767484.827,-40.122,-8.484,-9938.484,-3097.957,0
1488767484.827,-55.698,71.522,-10827.582,-3705.579,0
1488767484.842,-257.601,105.639,-11596.143,-4454.363,0
1488767484.842,-71.120,5.193,-10733.084,-3768.302,0
1488767484.842,-9.137,46.846,-11068.183,-3079.856,0
1488767484.842,-196.442,134.915,-11373.927,-3914.388,0
1488767484.857,-157.452,25.377,-10872.947,-2935.558,0
1488767484.857,-5.056,12.183,-10157.308,-2889.050,0
1488767484.872,-116.090,116.745,-10317.103,-3782.879,0
1488767484.872,-240.640,67.688,-10701.575,-4028.635,0
1488767484.872,-26.716,-3.018,-9931.723,-3090.614,0
1488767484.872,-50.958,72.395,-10839.602,-3707.436,0
1488767484.887,-243.230,120.993,-11576.983,-4439.244,0
1488767484.887,-86.302,-10.775,-10742.849,-3787.262,0
1488767484.902,-17.957,38.063,-11080.651,-3096.934,0
1488767484.902,-217.320,121.651,-11391.467,-3932.488,0
1488767484.902,-175.962,12.738,-10866.761,-3916.419,0
1488767484.902,-24.184,1.122,-10167.017,-3872.126,0
1488767484.917,-148.816,83.136,-10361.652,-4793.551,0
1488767484.917,-231.419,69.212,-10698.456,-5015.735,0
1488767484.917,-50.244,-26.383,3778.959,1786.219,0
1488767484.932,-62.660,60.194,2856.102,1166.918,0
1488767484.932,-268.568,102.879,2129.252,434.821,0
1488767484.947,-90.457,-9.419,2986.424,1111.364,0
1488767484.947,-31.641,26.505,2625.333,1788.987,0
1488767484.947,-194.899,143.431,2343.199,979.968,0
1488767484.947,-170.420,11.251,2873.283,981.825,0
1488767484.962,-23.922,3.652,3547.704,1013.866,0
1488767484.962,-129.836,104.799,3356.420,102.243,0
1488767484.977,-237.377,60.048,3048.847,-101.869,0
1488767484.977,-41.659,-16.758,3791.394,824.846,0
1488767484.977,-42.482,75.817,2861.913,208.959,0
1488767484.977,-241.841,121.749,2156.344,-521.574,0
1488767484.992,-79.875,-5.501,2996.952,153.760,0
1488767484.992,-32.444,21.955,2614.607,811.053,0
1488767485.007,-204.576,133.185,2317.906,-14.200,0
1488767485.007,-156.423,21.104,2895.292,28.646,0
1488767485.007,-8.097,15.270,3555.827,55.036,0
1488767485.007,-114.699,112.562,3350.814,-867.541,0
1488767485.022,-235.206,66.456,3051.857,-1075.778,0
1488767485.022,-25.377,2.653,3812.929,-138.045,0
1488767485.037,-49.705,70.232,2837.918,-794.734,0
1488767485.037,-244.326,125.591,2168.289,-1497.207,0
1488767485.037,-71.481,3.843,3023.460,-808.529,0
1488767485.037,-26.787,32.002,2610.590,-170.661,0
1488767485.052,-203.991,131.897,2314.443,-995.735,0
1488767485.052,-144.831,35.826,2932.280,-932.013,0
1488767485.067,-13.013,12.676,3545.352,45.236,0
1488767485.067,-123.026,111.872,3327.342,-880.935,0
1488767485.067,-219.908,80.591,3088.037,-1051.400,0
1488767485.067,-11.321,10.659,3826.486,-118.820,0
1488767485.082,-46.124,87.717,3817.854,-779.717,0
1488767485.082,-241.066,129.969,3156.307,-1490.436,0
1488767485.097,-82.440,-2.584,4013.359,-805.864,0
1488767485.097,-15.831,44.825,3606.107,-150.209,0
1488767485.097,-192.702,144.962,3301.757,-987.491,0
1488767485.097,-159.150,24.739,3929.371,-924.232,0
1488767485.112,-4.047,14.627,4548.647,-915.374,0
1488767485.112,-121.913,113.298,4314.096,-1855.959,0
1488767485.127,-217.614,84.460,4105.002,-2015.611,0
1488767485.127,-22.546,-1.060,4815.738,-1096.997,0
1488767485.127,-28.822,93.400,4814.766,-1750.477,0
1488767485.127,-247.901,124.017,4148.551,-2472.636,0
1488767485.142,-81.433,-1.505,5021.023,-1769.698,0
1488767485.142,-14.015,45.859,4605.819,-1120.259,0
1488767485.157,-185.082,151.861,4304.600,-1956.639,0
1488767485.157,-154.854,26.667,4938.018,-1897.461,0
1488767485.157,-20.938,8.772,5544.276,-1890.723,0
1488767485.157,-114.215,124.269,5322.347,-2813.944,0
1488767485.172,-221.497,71.570,5115.078,-2989.233,0
1488767485.172,-19.100,-6.504,5833.563,-2054.503,0
1488767485.187,-42.908,78.226,5813.181,-2723.361,0
1488767485.187,-244.028,119.295,5180.098,-3427.872,0
1488767485.202,-70.233,3.482,6053.295,-2715.506,0
1488767485.202,-3.572,46.814,5619.736,-2065.606,0
1488767485.202,-184.931,147.715,5306.430,-2922.391,0
1488767485.202,-152.829,21.964,5956.546,-2858.583,0
1488767485.217,-7.697,12.600,6522.944,-1880.175,0
1488767485.217,-102.870,132.985,6271.739,-2822.723,0
1488767485.217,-211.776,91.566,6090.219,-2984.780,0
1488767485.217,-23.578,4.617,6752.471,-2082.023,0
1488767485.232,-46.695,83.355,6701.837,-2766.144,0
1488767485.232,-243.088,126.915,6085.696,-3464.450,0
1488767485.247,-74.555,3.843,6949.846,-2764.631,0
1488767485.247,-18.716,42.863,6489.356,-2130.948,0
1488767485.248,-187.928,155.978,6182.808,-2976.046,0
1488767485.248,-137.217,41.687,6882.107,-2880.972,0
1488767485.262,0.267,27.868,7441.235,-1917.796,0
1488767485.262,-129.739,117.328,7163.458,-2891.554,0
1488767485.277,-220.308,86.298,7035.666,-3015.580,0
1488767485.277,-20.880,6.915,7705.072,-2104.116,0
1488767485.277,-45.780,83.540,7651.902,-2788.888,0
1488767485.277,-232.708,136.383,7073.658,-3468.103,0
1488767485.292,-78.514,4.877,7934.891,-2771.241,0
1488767485.292,-9.653,50.281,7464.127,-2142.495,0
1488767485.307,-189.886,148.826,7166.805,-2980.326,0
1488767485.307,-141.052,38.656,7886.330,-2874.754,0
1488767485.307,1.429,19.208,8426.258,-1910.266,0
1488767485.307,-109.370,127.020,8168.859,-2867.359,0
1488767485.322,-220.849,76.999,8051.367,-3001.367,0
1488767485.322,-11.270,6.636,8711.494,-2085.213,0
1488767485.337,-42.087,89.941,8649.382,-2775.026,0
1488767485.337,-252.348,117.106,8063.475,-3474.279,0
1488767485.337,-74.592,-3.222,8941.968,-2751.403,0
1488767485.337,5.754,60.972,8470.123,-2123.681,0
1488767485.352,-191.234,144.609,8151.577,-2988.683,0
1488767485.352,-145.987,27.030,8884.629,-2867.490,0
1488767485.367,-2.743,20.923,9403.991,-1912.890,0
1488767485.367,-119.518,120.212,9124.056,-2884.508,0
1488767485.367,-216.067,80.801,9043.075,-2987.718,0
1488767485.367,-8.867,15.094,9699.026,-2070.992,0
1488767485.382,-28.655,94.274,9621.157,-2770.353,0
1488767485.382,-228.736,130.676,9059.174,-3463.701,0
1488767485.397,-70.147,2.629,9925.449,-2748.147,0
1488767485.397,-8.067,52.297,9424.620,-2136.137,0
1488767485.397,-200.604,140.209,9115.338,-3002.044,0
1488767485.397,-152.732,25.588,9872.482,-2864.784,0
1488767485.413,-9.735,16.665,10374.951,-1922.357,0
1488767485.413,-125.231,118.048,10094.859,-2893.770,0
1488767485.427,-218.066,84.408,10045.275,-2986.486,0
1488767485.427,-1.386,22.505,10686.715,-2065.107,0
1488767485.427,-35.531,97.432,10588.270,-2778.385,0
1488767485.427,-247.209,121.451,10043.284,-3468.635,0
1488767485.442,-61.723,11.554,10927.192,-2726.563,0
1488767485.442,-21.304,31.808,10398.621,-2133.760,0
1488767485.457,-197.902,148.266,10082.371,-3015.532,0
1488767485.457,-147.498,33.208,10874.839,-2857.373,0
1488767485.457,-3.252,28.964,11364.035,-1912.291,0
1488767485.457,-115.123,130.317,11073.983,-2886.644,0
1488767485.472,-219.919,76.728,11042.093,-2978.604,0
1488767485.472,-4.473,20.094,11666.897,-2062.521,0
1488767485.487,-36.610,93.234,11551.854,-2786.521,0
1488767485.487,-254.182,110.637,11021.253,-3476.401,0
1488767485.487,-62.705,9.548,11916.287,-2726.250,0
1488767485.487,-2.438,53.539,11386.426,-2128.111,0
1488767485.502,-187.937,147.266,11076.594,-3001.655,0
1488767485.502,-141.939,34.688,11878.838,-2845.303,0
1488767485.517,-5.520,19.676,12339.267,-1915.292,0
1488767485.517,-129.434,109.667,12026.428,-1930.043,0
1488767485.517,-222.341,73.065,12034.433,-2003.262,0
1488767485.517,-25.388,2.029,12636.064,-1096.028,0
1488767485.532,-51.444,78.609,12510.554,-1822.590,0
1488767485.532,-247.722,119.873,12017.183,-2495.734,0
1488767485.547,-55.339,14.023,12914.457,-1731.476,0
1488767485.547,-4.710,49.456,12357.481,-1151.304,0
1488767485.547,-207.076,133.916,12035.543,-2034.904,0
1488767485.547,-162.057,16.622,12861.199,-1869.823,0
1488767485.562,-21.087,3.663,13304.401,-945.164,0
1488767485.562,-122.042,119.707,13004.996,-1918.956,0
1488767485.577,-218.289,77.005,13029.236,-1994.049,0
1488767485.577,-16.160,13.927,13634.541,-1082.215,0
1488767485.577,-44.890,87.669,13488.756,-1820.714,0
1488767485.577,-238.374,127.037,13017.877,-2479.546,0
1488767485.592,-65.166,5.632,13888.160,-1736.875,0
1488767485.592,-8.011,50.808,13325.852,-1156.613,0
1488767485.607,-208.956,137.696,13017.003,-2034.648,0
1488767485.607,-151.513,25.476,13856.104,-1857.790,0
1488767485.607,-4.155,27.202,14297.052,-931.609,0
1488767485.607,-124.243,122.197,13961.459,-952.010,0
1488767485.622,-217.094,77.420,14027.369,-1005.999,0
1488767485.622,-12.919,14.556,14609.161,-104.483,0
1488767485.637,-35.336,94.625,14465.272,-835.989,0
1488767485.637,-232.313,132.217,14006.902,-1496.478,0
1488767485.637,-66.316,9.537,14876.600,-751.574,0
1488767485.637,-1.632,50.322,14302.360,-180.916,0
1488767485.652,-198.366,139.992,14004.862,-1054.661,0
1488767485.652,-147.977,26.520,14861.264,-858.000,0
1488767485.667,-9.284,19.160,15276.017,52.648,0
1488767485.667,-115.411,129.223,14949.924,37.887,0
1488767485.667,-225.338,69.777,15012.943,-18.870,0
1488767485.667,-25.039,-0.956,15576.092,870.196,0
1488767485.682,-61.439,71.133,15404.871,114.875,0
1488767485.682,-239.630,129.690,14985.105,-515.545,0
1488767485.697,-66.942,4.176,15862.604,232.190,0
1488767485.697,-10.969,47.560,15272.511,793.566,0
1488767485.697,-214.255,127.925,14961.808,-92.170,0
1488767485.697,-138.445,37.158,15850.769,129.960,0
1488767485.712,8.830,36.731,16256.471,1041.207,0
1488767485.712,-111.561,129.056,15914.775,1013.621,0
1488767485.727,-221.189,70.695,16005.671,961.079,0
1488767485.727,-26.499,-1.571,16555.412,1844.431,0
1488767485.727,-47.267,85.818,16388.059,1102.390,0
1488767485.727,-226.292,136.544,15978.248,468.286,0
1488767485.742,-61.806,12.910,16854.143,1219.615,0
1488767485.742,-16.196,42.094,16234.239,1770.826,0
1488767485.757,-198.927,134.992,15948.200,897.290,0
1488767485.757,-140.848,26.445,16843.074,1109.740,0
1488767485.757,-3.327,20.992,17225.117,2011.204,0
1488767485.757,-121.597,122.656,16879.971,1986.012,0
1488767485.772,-223.805,69.672,16992.023,1931.847,0
1488767485.772,-10.049,7.025,17559.795,2846.961,0
1488767485.787,-44.886,90.046,17362.518,2084.601,0
1488767485.787,-223.818,134.896,16975.293,1459.399,0
1488767485.787,-52.798,17.774,17845.412,2209.647,0
1488767485.787,-0.295,52.964,17219.615,2758.135,0
1488767485.802,-205.279,133.935,16915.201,1871.667,0
1488767485.802,-133.273,35.479,17855.883,2110.094,0
1488767485.817,-2.169,20.799,18210.344,2997.649,0
1488767485.817,-112.687,130.365,17854.590,2961.290,0
1488767485.817,-223.953,73.698,18002.879,2938.256,0
1488767485.817,-20.194,10.135,18535.531,3830.534,0
1488767485.832,-53.370,80.417,18322.967,3055.418,0
1488767485.832,-263.942,104.287,17930.178,2405.348,0
1488767485.847,-72.917,3.467,18836.293,3196.324,0
1488767485.847,-11.741,46.926,18191.242,3738.963,0
1488767485.847,-207.125,136.940,17886.842,2846.694,0
1488767485.847,-148.515,23.778,18837.652,3087.747,0
1488767485.862,3.566,32.116,19187.268,3987.992,0
1488767485.862,-124.047,128.368,18811.543,3930.895,0
1488767485.877,-221.572,73.381,18998.502,3921.122,0
1488767485.877,-35.032,-7.618,19502.484,4797.046,0
1488767485.877,-48.233,90.051,19290.268,4027.449,0
1488767485.877,-247.424,115.073,18925.717,3394.109,0
1488767485.892,-52.835,16.747,19828.068,4186.771,0
1488767485.892,-8.647,47.603,19156.912,4711.238,0
1488767485.907,-191.573,152.397,18873.787,3832.870,0
1488767485.907,-146.976,26.916,19836.207,4073.901,0
1488767485.907,-3.044,26.718,20159.859,4958.939,0
1488767485.907,-131.514,118.142,19769.396,4895.342,0
1488767485.922,-229.925,72.425,19990.422,3925.100,0
1488767485.922,-11.678,13.398,20502.102,4817.984,0
1488767485.922,-56.226,77.951,651.590,1078.912,0
1488767485.937,-267.747,103.290,293.169,437.430,0
1488767485.937,-60.338,8.903,1205.295,1243.807,0
1488767485.952,-5.445,56.895,529.207,1768.109,0
1488767485.952,-217.913,126.123,222.475,861.819,0
1488767485.952,-160.234,9.636,230.806,1121.628,0
1488767485.952,4.428,24.130,557.447,2019.288,0
1488767485.967,-110.824,134.264,178.367,1968.141,0
1488767485.967,-195.795,93.832,434.421,1016.643,0
1488767485.982,-23.556,2.691,898.249,1877.906,0
1488767485.982,-61.059,78.486,637.933,1074.958,0
1488767485.982,-246.308,122.992,324.163,458.031,0
1488767485.982,-69.330,3.084,1217.747,1245.155,0
1488767485.997,-8.046,50.612,527.227,1766.274,0
1488767485.997,-184.211,150.398,256.320,892.985,0
1488767486.012,-124.075,36.152,281.588,1168.633,0
1488767486.012,-2.343,17.097,543.103,2010.037,0
1488767486.012,-119.843,131.805,149.486,1948.920,0
1488767486.012,-227.040,69.353,408.797,988.861,0
1488767486.027,-21.635,0.464,893.958,1878.570,0
1488767486.027,-42.399,91.772,639.166,1081.800,0
1488767486.042,-247.323,121.554,336.196,458.931,0
1488767486.042,-58.774,5.935,1225.023,1256.421,0
1488767486.042,-14.253,42.786,523.477,1760.214,0
1488767486.042,-196.921,149.338,235.516,871.905,0
1488767486.057,-138.965,27.686,282.503,1159.019,0
1488767486.057,-13.849,16.108,533.183,2003.154,0
1488767486.072,-120.776,124.380,137.901,1942.272,0
1488767486.072,-211.244,76.707,450.753,1009.100,0
1488767486.072,-15.852,8.794,906.043,1889.164,0
1488767486.072,-47.151,89.328,627.088,1079.371,0
1488767486.087,-253.002,108.395,330.091,456.172,0
1488767486.087,-74.446,-0.507,1231.240,1248.921,0
1488767486.102,-17.138,50.631,514.227,1761.023,0
1488767486.102,-226.954,122.910,200.752,849.415,0
1488767486.102,-154.970,17.680,282.778,1149.421,0
1488767486.102,-20.721,11.158,526.976,1997.568,0
1488767486.117,-128.150,123.851,115.460,1933.754,0
1488767486.117,-193.138,95.319,472.024,1028.994,0
1488767486.132,1.675,21.575,917.231,1903.609,0
1488767486.132,-70.374,77.354,590.143,1055.033,0
1488767486.132,-255.473,119.572,331.518,455.438,0
1488767486.132,-71.666,-0.415,1231.657,1257.240,0
1488767486.147,-19.720,48.291,494.134,1751.216,0
1488767486.147,-207.849,141.637,209.704,863.741,0
1488767486.162,-131.699,38.891,308.095,1177.801,0
1488767486.162,-1.144,27.417,535.830,2023.114,0
1488767486.162,-115.092,134.029,105.783,1934.231,0
1488767486.162,-228.919,64.302,453.020,996.926,0
1488767486.177,-18.821,7.306,905.254,1896.397,0
1488767486.177,-53.901,85.038,591.491,1062.840,0
1488767486.192,-244.606,122.192,337.679,456.296,0
1488767486.192,-63.919,7.007,1247.864,1275.306,0
1488767486.192,-17.381,47.557,493.886,1749.430,0
1488767486.192,-202.933,141.538,218.588,861.200,0
1488767486.207,-118.749,45.359,338.876,1200.803,0
1488767486.207,10.257,30.007,539.546,2019.548,0
1488767486.222,-115.049,130.201,98.473,1927.546,0
1488767486.222,-217.799,68.395,480.289,1019.016,0
1488767486.222,-10.692,15.521,906.890,1895.673,0
1488767486.222,-64.749,75.065,575.868,1049.300,0
1488767486.237,-246.085,120.563,363.524,472.368,0
1488767486.237,-56.097,8.736,1268.914,1286.168,0
1488767486.252,-5.531,51.560,495.365,1765.981,0
1488767486.252,-211.708,136.585,206.413,854.907,0
1488767486.252,-140.835,26.938,339.689,1188.000,0
1488767486.252,-3.055,26.067,528.908,2020.915,0
1488767486.267,-129.000,121.814,74.712,1910.947,0
1488767486.267,-207.815,72.941,511.452,1032.867,0
1488767486.282,-5.062,16.603,911.675,1904.669,0
1488767486.282,-48.699,89.660,573.125,1062.627,0
1488767486.282,-244.520,121.485,374.932,476.596,0
1488767486.282,-77.472,-9.494,1259.615,1275.639,0
1488767486.297,-18.559,38.966,474.842,1747.388,0
1488767486.297,-204.215,140.214,200.887,849.382,0
1488767486.312,-139.779,22.707,354.524,1195.605,0
1488767486.312,-1.569,31.669,524.126,2016.589,0
1488767486.312,-125.229,125.206,67.286,1911.035,0
1488767486.312,-227.388,66.853,508.907,1022.464,0
1488767486.327,-15.427,13.275,900.779,1887.370,0
1488767486.327,-49.913,93.531,559.330,1053.197,0
1488767486.342,-240.782,121.377,380.585,473.625,0
1488767486.342,-71.756,0.488,1267.549,1286.460,0
1488767486.342,-26.673,40.125,445.923,1730.942,0
1488767486.343,-207.897,144.141,196.973,847.828,0
1488767486.357,-127.716,39.035,374.452,1208.494,0
1488767486.357,10.333,39.175,531.657,2029.984,0
1488767486.372,-123.563,124.993,47.904,1897.139,0
1488767486.372,-221.219,64.201,519.051,1028.349,0
1488767486.372,-6.075,13.230,897.935,1896.924,0
1488767486.372,-47.338,90.689,542.435,1049.863,0
1488767486.387,-242.908,120.917,385.591,476.383,0
1488767486.387,-63.088,4.808,1272.301,1290.385,0
1488767486.402,-15.904,54.330,460.327,1749.370,0
1488767486.402,-195.314,152.504,186.376,846.592,0
1488767486.402,-145.078,20.119,369.225,1199.838,0
1488767486.402,7.762,27.638,517.694,2018.624,0
1488767486.417,-118.703,130.719,33.844,1898.551,0
1488767486.417,-227.283,55.812,535.109,1034.600,0
1488767486.432,-31.213,-6.304,878.418,1881.974,0
1488767486.432,-42.351,94.949,509.859,1028.151,0
1488767486.432,-242.820,120.412,377.593,459.293,0
1488767486.432,-59.470,13.944,1272.635,1283.001,0
1488767486.447,-3.740,57.886,438.170,1730.732,0
1488767486.447,-206.839,144.609,171.583,820.426,0
1488767486.462,-138.386,19.928,384.108,1201.957,0
1488767486.462,-3.934,24.040,494.082,1998.845,0
1488767486.462,-129.281,124.761,5.905,1874.797,0
1488767486.462,-214.719,73.263,555.268,1040.736,0
1488767486.477,-0.664,21.880,901.013,1900.974,0
1488767486.477,-47.637,92.678,499.067,1021.455,0
1488767486.492,-241.098,120.386,397.600,471.843,0
1488767486.492,-68.657,-1.408,1273.804,1287.569,0
1488767486.492,-4.561,58.586,443.404,1739.186,0
1488767486.492,-205.027,144.310,169.042,824.096,0
1488767486.507,-145.501,18.679,405.573,1209.394,0
1488767486.507,-15.694,15.354,494.488,1992.527,0
1488767486.522,-139.452,113.431,-7.018,1860.572,0
1488767486.522,-219.239,61.353,573.645,1047.439,0
1488767486.522,-20.670,3.695,883.187,1883.339,0
1488767486.522,-51.177,92.748,503.583,1025.346,0
1488767486.537,-244.907,118.484,414.540,482.627,0
1488767486.537,-75.245,-11.392,1277.916,1295.997,0
1488767486.552,-23.240,46.070,427.863,1730.994,0
1488767486.552,-210.594,136.357,154.948,818.178,0
1488767486.552,-126.833,33.031,431.882,1238.642,0
1488767486.552,-4.207,21.927,502.115,2008.147,0
1488767486.567,-127.755,126.579,-8.793,1875.361,0
1488767486.567,-213.545,74.445,599.852,1064.428,0
1488767486.582,-15.975,6.614,897.830,1902.519,0
1488767486.582,-29.633,112.234,500.331,1040.909,0
1488767486.582,-241.300,122.555,422.182,481.394,0
1488767486.582,-69.603,-2.799,1297.373,1309.664,0
1488767486.597,-20.762,41.105,433.381,1737.458,0
1488767486.597,-214.874,134.829,162.194,821.418,0
1488767486.612,-131.955,29.465,460.165,1249.014,0
1488767486.612,-7.811,23.118,512.697,2017.423,0
1488767486.612,-122.570,132.381,1.629,1880.064,0
1488767486.612,-212.701,71.537,639.605,1077.815,0
1488767486.627,-20.390,3.310,906.449,1908.400,0
1488767486.627,-55.025,93.761,483.960,1024.826,0
1488767486.642,-255.723,114.706,437.809,483.547,0
1488767486.642,-57.907,10.109,1335.021,1328.882,0
1488767486.642,-13.830,43.306,431.476,1735.366,0
1488767486.642,-214.005,136.073,164.350,817.482,0
1488767486.657,-158.574,1.844,450.514,1229.939,0
1488767486.657,-1.111,27.711,504.378,2008.472,0
1488767486.672,-140.616,114.740,-40.402,1846.998,0
1488767486.672,-233.138,47.990,617.672,1052.767,0
1488767486.672,-8.476,16.807,910.838,1909.303,0
1488767486.672,-47.256,91.031,463.504,1011.641,0
1488767486.688,-235.563,130.246,444.614,485.280,0
1488767486.688,-72.143,3.358,1312.265,1312.035,0
1488767486.702,-13.241,51.156,418.983,1733.101,0
1488767486.702,-198.441,159.002,154.456,822.585,0
1488767486.702,-131.787,22.499,472.402,1253.113,0
1488767486.702,-7.388,23.163,481.753,1999.509,0
1488767486.717,-122.585,140.209,-56.115,1851.080,0
1488767486.717,-217.724,62.793,634.392,1064.370,0
1488767486.732,-10.176,14.111,889.627,1900.703,0
1488767486.732,-52.116,87.631,443.229,1001.291,0
1488767486.732,-253.902,108.150,428.744,472.016,0
1488767486.732,-66.030,5.333,1311.964,1311.353,0
1488767486.747,-39.303,38.396,391.448,1711.397,0
1488767486.747,-192.066,164.915,144.843,813.993,0
1488767486.771,-151.191,9.327,456.176,1232.695,0
1488767486.771,-14.930,17.946,463.246,1989.705,0
1488767486.771,-137.292,124.920,-79.970,1829.465,0
1488767486.771,-199.224,85.027,660.016,1083.729,0
1488767486.777,-18.297,16.343,877.134,1895.589,0
1488767486.777,-64.437,86.726,413.678,981.681,0
1488767486.792,-235.844,134.390,-543.441,474.210,0
1488767486.792,-56.375,5.801,315.739,1306.295,0
1488767486.792,-13.383,58.090,-610.589,1702.509,0
1488767486.792,-202.046,134.520,-859.046,791.443,0
1488767486.807,-111.494,46.027,-492.575,1263.615,0
1488767486.807,-8.054,25.996,454.688,1985.889,0
1488767486.822,-116.152,138.322,-80.010,1838.005,0
1488767486.822,-188.003,87.291,667.179,1089.637,0
1488767486.822,-38.693,-10.399,858.238,1873.510,0
1488767486.822,-67.958,81.698,398.623,969.629,0
1488767486.837,-254.268,109.884,-535.376,465.505,0
1488767486.837,-63.206,4.935,354.255,1331.702,0
1488767486.852,-34.972,36.771,-599.240,1704.332,0
1488767486.852,-240.550,118.964,-869.807,772.121,0
1488767486.852,-143.666,15.788,-459.048,1271.145,0
1488767486.852,10.805,45.062,509.804,2028.581,0
1488767486.867,-134.954,124.948,-81.975,1835.909,0
1488767486.867,-214.887,63.098,697.033,1090.371,0
1488767486.882,-34.469,-13.836,901.544,1908.454,0
1488767486.882,-59.818,82.622,405.098,989.706,0
1488767486.882,-217.312,135.775,-482.686,514.900,0
1488767486.882,-52.250,5.421,382.807,1351.398,0
1488767486.897,-11.412,55.149,-581.511,1732.712,0
1488767486.897,-189.192,156.633,-833.626,814.163,0
1488767486.912,-140.228,24.390,-450.621,1280.658,0
1488767486.912,4.123,35.035,495.617,2018.549,0
1488767486.912,-135.951,126.811,-88.709,1830.118,0
1488767486.912,-221.146,65.289,709.975,1094.412,0
1488767486.927,-9.327,12.946,912.171,1921.527,0
1488767486.927,-70.280,76.578,388.293,973.889,0
1488767486.927,-247.262,110.890,-3452.668,-1479.345,0
1488767486.942,-58.888,3.233,-2577.533,-628.247,0
1488767486.942,20.642,81.967,-3505.993,-210.296,0
1488767486.957,-218.304,135.087,-3808.955,-1179.338,0
1488767486.957,-149.787,10.025,-3409.401,-702.966,0
1488767486.957,-5.268,21.856,-2479.918,36.515,0
1488767486.957,-138.262,114.634,-3066.465,-151.797,0
1488767486.972,-231.363,56.433,-2264.764,-894.848,0
1488767486.972,-13.490,15.698,-2043.722,-48.320,0
1488767486.987,-40.922,104.635,-2554.585,-977.101,0
1488767486.987,-220.751,138.191,-3435.773,-1461.732,0
1488767486.987,-60.708,6.233,-2574.360,-623.454,0
1488767486.987,12.596,78.557,-3548.174,-235.049,0
1488767487.002,-220.306,135.196,-3826.437,-1197.067,0
1488767487.002,-142.227,13.798,-3396.003,-694.658,0
1488767487.017,-8.486,16.362,-2499.338,18.931,0
1488767487.017,-130.313,127.349,-3077.967,-150.752,0
1488767487.017,-209.745,66.636,-2229.263,-861.811,0
1488767487.017,-7.538,18.829,-2050.336,-40.550,0
1488767487.032,-68.663,83.736,-2590.999,-1002.074,0
1488767487.032,-272.353,96.514,-3482.423,-1507.828,0
1488767487.047,-53.851,14.225,-2560.075,-607.685,0
1488767487.047,2.092,64.240,-2573.131,-229.003,0
1488767487.047,-221.475,134.171,-2854.046,-1194.937,0
1488767487.047,-139.465,14.479,-2388.076,-673.709,0
1488767487.062,-17.635,23.236,-1523.977,34.297,0
1488767487.062,-142.544,125.883,-2111.650,-161.999,0
1488767487.077,-198.033,69.631,-1213.706,-843.488,0
1488767487.077,-15.090,9.415,-1067.134,-42.463,0
1488767487.077,-48.877,101.673,-1609.722,-995.472,0
1488767487.077,-245.723,114.574,-2461.626,-1482.803,0
1488767487.092,-50.786,8.574,-1576.255,-601.389,0
1488767487.092,-17.028,53.481,-1610.539,-252.653,0
1488767487.107,-198.159,149.325,-1843.153,-1172.930,0
1488767487.107,-120.722,31.151,-1386.570,-661.788,0
1488767487.107,-23.808,15.481,-532.629,23.947,0
1488767487.107,-135.362,122.482,-1131.121,-162.158,0
1488767487.122,-204.640,77.741,-222.010,-839.058,0
1488767487.122,-12.377,13.692,-79.809,-45.494,0
1488767487.137,-37.715,106.724,-606.518,-977.316,0
1488767487.137,-216.617,140.059,-1441.829,-1453.016,0
1488767487.137,-61.794,6.855,-596.127,-604.158,0
1488767487.137,-21.667,43.826,-642.075,-258.092,0
1488767487.152,-190.856,162.446,-857.752,-1168.036,0
1488767487.152,-140.938,12.596,-410.368,-671.802,0
1488767487.167,-3.267,20.571,459.740,41.298,0
1488767487.167,-109.615,149.170,-125.659,-136.968,0
1488767487.167,-220.734,58.657,746.185,-857.135,0
1488767487.167,-22.645,4.948,883.815,-49.651,0
1488767487.182,-71.271,77.579,313.125,-1023.132,0
1488767487.182,-239.182,117.534,-472.415,-1467.043,0
1488767487.197,-42.547,18.000,388.845,-597.705,0
1488767487.197,-19.683,48.213,326.871,-262.193,0
1488767487.197,-231.896,128.780,69.884,-1224.447,0
1488767487.197,-128.684,19.234,580.049,-661.964,0
1488767487.212,8.134,32.932,1427.617,37.190,0
1488767487.212,-121.132,134.786,815.276,-165.128,0
1488767487.227,-210.224,66.458,1743.760,-847.024,0
1488767487.227,-0.301,20.775,1868.708,-41.937,0
1488767487.227,-46.997,100.882,1301.620,-1003.488,0
1488767487.227,-238.693,115.686,505.560,-1476.219,0
1488767487.242,-32.904,27.350,1390.519,-577.729,0
1488767487.242,9.153,71.842,1324.775,-244.315,0
1488767487.257,-211.826,143.665,1062.844,-1204.691,0
1488767487.257,-123.103,27.051,1576.211,-650.825,0
1488767487.257,-4.568,26.310,2408.464,37.341,0
1488767487.257,-142.548,122.278,1774.401,-179.379,0
1488767487.272,-183.085,79.879,1797.643,-809.054,0
1488767487.272,-17.005,13.918,1870.763,-45.402,0
1488767487.287,-70.800,84.252,1277.140,-47.916,0
1488767487.287,-235.128,121.997,525.346,-483.068,0
1488767487.287,-33.586,19.850,1406.984,410.733,0
1488767487.287,-22.776,50.414,1300.644,708.763,0
1488767487.302,-210.440,150.810,1073.639,-220.759,0
1488767487.302,-112.760,37.651,1623.713,364.216,0
1488767487.317,32.612,55.149,2447.200,1060.161,0
1488767487.317,-128.458,131.141,1776.381,809.337,0
1488767487.317,-236.399,44.518,2738.629,128.361,0
1488767487.317,-35.045,-2.956,2835.169,923.791,0
1488767487.332,-50.292,105.091,2276.271,-21.899,0
1488767487.332,-248.223,112.610,1504.068,-493.994,0
1488767487.347,-37.268,18.671,2386.626,406.329,0
1488767487.347,7.119,65.269,2293.200,729.451,0
1488767487.347,-194.873,150.136,2063.428,-206.990,0
1488767487.347,-125.294,21.102,2598.826,357.561,0
1488767487.362,-3.876,25.944,3382.221,1023.022,0
1488767487.362,-139.066,125.427,2734.807,793.784,0
1488767487.377,-212.578,71.299,2779.224,158.761,0
1488767487.377,-2.117,17.564,2862.338,953.805,0
1488767487.377,-45.376,95.352,2255.726,947.451,0
1488767487.377,-240.382,118.613,1511.961,484.923,0
1488767487.392,-44.694,13.417,2371.164,1382.740,0
1488767487.392,-3.916,62.172,2282.233,1704.287,0
1488767487.407,-211.443,136.613,2044.349,754.929,0
1488767487.407,-131.500,20.736,2595.343,1329.914,0
1488767487.407,-7.465,25.989,3364.806,1990.816,0
1488767487.407,-144.304,123.048,2719.648,1760.042,0
1488767487.422,-224.491,58.326,2782.356,1133.062,0
1488767487.422,-16.087,7.852,2849.183,1914.909,0
1488767487.437,-34.611,115.971,2255.010,958.205,0
1488767487.437,-234.187,121.855,1525.651,503.336,0
1488767487.437,-41.973,17.033,2388.927,1392.727,0
1488767487.437,-19.659,51.719,2249.851,1681.453,0
1488767487.452,-225.458,131.377,2019.413,729.881,0
1488767487.452,-125.242,21.847,2605.910,1334.239,0
1488767487.467,22.456,45.728,3392.667,2014.996,0
1488767487.467,-139.444,120.142,2708.512,1758.361,0
1488767487.467,-187.865,76.666,2815.748,1162.490,0
1488767487.467,-4.985,18.432,2849.573,1925.674,0
1488767487.482,-82.764,74.087,2193.558,1880.840,0
1488767487.482,-256.422,104.252,1509.605,1453.093,0
1488767487.497,-78.951,-22.812,2353.870,2338.217,0
1488767487.497,-11.511,54.116,2256.689,2669.122,0
1488767487.497,-204.988,153.581,2040.729,1733.290,0
1488767487.497,-107.954,38.291,2636.971,2341.527,0
1488767487.512,-8.190,25.639,3369.567,2979.672,0
1488767487.512,-154.611,111.258,2688.797,2723.466,0
1488767487.527,-213.709,58.241,2811.251,2128.194,0
1488767487.527,-12.089,5.270,2848.708,2907.082,0
1488767487.527,-44.851,107.849,2231.729,2900.014,0
1488767487.527,-240.994,114.325,1534.428,2453.189,0
1488767487.542,-52.422,2.020,2387.677,3349.376,0
1488767487.542,1.662,65.637,2271.135,3668.619,0
1488767487.557,-207.181,147.868,2032.809,2715.345,0
1488767487.557,-138.982,7.143,2620.450,3299.388,0
1488767487.557,28.399,53.280,3404.964,3993.912,0
1488767487.557,-129.724,136.678,2706.567,3723.360,0
1488767487.572,-211.138,59.670,2825.434,3114.336,0
1488767487.572,-25.035,-2.921,2835.362,3873.321,0
1488767487.587,-53.267,98.066,2207.979,3865.344,0
1488767487.587,-244.975,117.575,1550.680,3443.647,0
1488767487.587,-64.055,2.251,2391.191,4329.579,0
1488767487.587,-25.861,49.585,2251.790,4622.456,0
1488767487.602,-223.164,128.645,2034.805,3674.713,0
1488767487.602,-103.253,41.124,2680.762,4324.896,0
1488767487.617,18.872,45.688,3384.557,4952.757,0
1488767487.617,-142.161,125.623,2685.708,4683.705,0
1488767487.617,-185.290,83.568,2872.937,4125.682,0
1488767487.617,4.710,21.725,3851.775,4883.024,0
1488767487.632,-70.424,90.709,3163.256,4823.990,0
1488767487.632,-243.095,115.948,2523.950,4411.318,0
1488767487.647,-20.199,25.592,3410.667,5341.991,0
1488767487.647,-17.366,61.127,3221.032,5604.668,0
1488767487.647,-239.385,125.915,2980.717,4629.549,0
1488767487.647,-127.628,24.111,3639.764,5279.104,0
1488767487.662,2.036,33.410,4348.608,5918.864,0
1488767487.662,-133.311,127.071,3658.256,5660.867,0
1488767487.677,-198.994,69.671,3851.446,5096.580,0
1488767487.677,-22.361,1.088,4804.673,5843.503,0
1488767487.677,-46.977,109.271,4159.354,5827.624,0
1488767487.677,-234.955,124.142,3529.173,5407.584,0
1488767487.692,-28.152,21.979,4389.229,6327.336,0
1488767487.692,-8.116,60.360,4203.416,6592.605,0
1488767487.707,-230.120,127.781,3967.144,5619.293,0
1488767487.707,-125.427,20.540,4625.615,6267.229,0
1488767487.707,6.062,34.989,5327.173,6907.755,0
1488767487.707,-148.609,123.955,4612.168,6627.080,0
1488767487.722,-205.298,69.536,4827.704,6072.011,0
1488767487.722,0.159,18.965,5800.001,6840.851,0
1488767487.737,-61.041,93.383,5107.499,6786.113,0
1488767487.737,-251.506,107.724,4500.850,6370.555,0
1488767487.737,-44.247,15.719,5355.202,7290.134,0
1488767487.737,-6.569,67.507,5170.447,7565.958,0
1488767487.752,-205.173,152.285,4968.440,6625.350,0
1488767487.752,-116.505,28.764,5624.058,7256.894,0
1488767487.767,-1.954,28.094,6290.783,7871.589,0
1488767487.767,-142.264,130.666,5586.458,7611.004,0
1488767487.767,-187.524,78.196,5848.975,7081.685,0
1488767487.767,5.449,22.430,6791.903,7831.836,0
1488767487.782,-69.375,86.994,6067.884,7749.929,0
1488767487.782,-260.959,98.687,5485.358,7354.341,0
1488767487.797,-49.844,9.441,6339.968,8272.006,0
1488767487.797,-7.297,54.546,6150.231,8549.070,0
1488767487.797,-222.479,130.715,5927.453,7586.832,0
1488767487.797,-131.235,10.369,6597.488,8234.259,0
1488767487.812,17.338,45.530,7296.234,8878.938,0
1488767487.812,-121.120,147.739,6590.803,8614.874,0
1488767487.827,-214.491,62.002,6807.827,8042.976,0
1488767487.827,-23.806,6.161,7741.058,8784.532,0
1488767487.828,-56.527,104.167,7062.135,8746.917,0
1488767487.828,-240.777,114.462,6492.825,8354.101,0
1488767487.842,-46.446,7.104,7334.027,9258.979,0
1488767487.842,-15.216,56.966,7116.504,9520.044,0
1488767487.857,-221.071,135.525,6916.771,8564.611,0
1488767487.857,-124.277,26.435,7606.507,9235.638,0
1488767487.857,25.923,57.520,8278.909,9865.622,0
1488767487.857,-122.506,144.886,7555.138,9584.164,0
1488767487.872,-206.773,65.155,7812.774,9030.596,0
1488767487.872,-4.136,16.641,8742.549,9792.344,0
1488767487.887,-59.846,90.075,8010.123,9708.017,0
1488767487.887,-268.876,91.360,7437.204,9299.612,0
1488767487.887,-39.630,18.346,8313.427,10246.108,0
1488767487.887,8.015,77.236,8099.808,10509.096,0
1488767487.902,-198.914,152.175,7897.662,9554.916,0
1488767487.902,-111.466,31.664,8599.849,10226.567,0
1488767487.917,8.086,32.795,9220.207,10821.037,0
1488767487.917,-144.727,119.623,8485.735,10528.263,0
1488767487.917,-201.027,64.530,8807.742,10020.422,0
1488767487.917,-8.417,12.871,9711.843,10759.525,0
1488767487.932,-72.403,85.498,8974.918,10674.446,0
1488767487.932,-257.112,106.069,8441.952,10289.453,0
1488767487.932,-53.133,4.090,3409.104,1412.844,0
1488767487.947,-14.083,59.528,3169.040,1666.546,0
1488767487.947,-217.058,140.491,2988.088,711.933,0
1488767487.977,-122.904,26.641,3705.956,1399.968,0
1488767487.977,-12.852,20.078,4302.158,1982.414,0
1488767487.977,-138.636,130.706,3591.308,1705.512,0
1488767487.977,-201.597,65.897,3917.661,1197.712,0
1488767487.977,-6.406,13.355,4816.181,1943.039,0
1488767487.977,-42.792,109.416,4085.180,1876.319,0
1488767487.992,-236.119,118.334,3560.196,1488.091,0
1488767487.992,-47.454,4.189,4401.309,2405.191,0
1488767487.992,-12.989,57.099,4146.000,2638.843,0
1488767487.992,-218.795,134.939,3965.618,1687.450,0
1488767488.007,-127.031,16.108,4690.685,2372.336,0
1488767488.007,5.011,39.192,5298.428,2979.720,0
1488767488.022,-155.812,118.854,4536.727,2666.275,0
1488767488.022,-220.878,47.112,4895.333,2161.288,0
1488767488.022,-18.043,3.396,5782.842,2911.080,0
1488767488.022,-65.252,88.222,5026.766,2825.451,0
1488767488.037,-235.118,115.709,4555.265,2470.236,0
1488767488.037,-50.762,-0.909,5375.132,3382.238,0
1488767488.052,-4.456,60.143,5126.365,3625.262,0
1488767488.052,-201.048,154.372,4953.791,2683.496,0
1488767488.052,-113.311,21.538,5692.329,3375.084,0
1488767488.052,5.802,34.020,6278.265,3959.157,0
1488767488.067,-145.331,122.403,5522.023,3658.768,0
1488767488.067,-201.235,55.306,5906.842,3173.254,0
1488767488.082,-8.018,11.538,6763.132,3902.178,0
1488767488.082,-71.511,90.279,6001.116,3809.095,0
1488767488.082,-249.006,107.657,5530.838,3443.217,0
1488767488.082,-53.123,-5.673,6353.506,4363.702,0
1488767488.097,-22.181,43.777,6074.850,4586.288,0
1488767488.097,-214.450,141.252,5918.544,3651.440,0
1488767488.112,-111.129,28.382,6680.155,4354.352,0
1488767488.112,-5.733,28.221,7236.512,4918.092,0
1488767488.112,-136.727,133.187,6487.032,4623.339,0
1488767488.112,-203.237,62.705,6887.663,4145.705,0
1488767488.127,-20.915,3.409,7728.705,4866.752,0
1488767488.127,-53.142,106.071,6969.771,4789.508,0
1488767488.142,-222.062,129.814,6538.377,4445.030,0
1488767488.142,-38.536,6.315,7339.174,5348.834,0
1488767488.142,-11.539,53.174,7053.988,5575.011,0
1488767488.142,-217.413,136.475,6884.155,4616.183,0
1488767488.157,-107.866,33.919,7673.698,5350.110,0
1488767488.157,11.203,36.655,8223.865,5915.233,0
1488767488.172,-138.935,128.471,7458.360,5602.132,0
1488767488.172,-190.838,70.563,7893.971,5141.111,0
1488767488.172,-8.134,7.317,8728.236,5862.745,0
1488767488.172,-75.172,83.359,7927.340,5742.597,0
1488767488.187,-262.044,88.256,7491.776,5391.757,0
1488767488.187,-80.806,-27.483,8316.168,6316.678,0
1488767488.202,-37.874,38.865,8028.615,6545.853,0
1488767488.202,-209.831,146.359,7869.022,5597.298,0
1488767488.202,-108.710,31.911,8671.030,6328.757,0
1488767488.202,4.828,33.517,9206.945,6889.722,0
1488767488.217,-144.143,124.526,8438.800,6575.611,0
1488767488.217,-213.421,48.314,8883.703,6113.289,0
1488767488.232,1.715,11.356,9726.907,6857.602,0
1488767488.232,-69.792,82.910,8913.206,6732.300,0
1488767488.232,-251.925,99.263,8493.668,6382.807,0
1488767488.232,-48.536,0.537,9320.726,7320.873,0
1488767488.247,-31.166,40.645,9011.649,7533.271,0
1488767488.247,-222.750,137.417,8850.313,6583.624,0
1488767488.262,-129.262,9.187,9659.360,7315.378,0
1488767488.262,-23.238,9.402,10163.812,7861.974,0
1488767488.262,-171.764,99.334,9377.715,7531.412,0
1488767488.262,-216.535,48.190,9870.085,7097.831,0
1488767488.277,-10.932,14.337,10697.499,7833.893,0
1488767488.277,-59.760,102.735,9889.912,7722.298,0
1488767488.292,-232.285,119.503,9498.778,7380.277,0
1488767488.292,-53.987,-0.608,10302.821,8301.626,0
1488767488.292,-8.549,67.913,9994.033,8521.283,0
1488767488.292,-208.862,150.641,9836.228,7570.664,0
1488767488.307,-105.392,35.303,10657.747,8310.931,0
1488767488.307,20.596,55.680,11174.409,8870.739,0
1488767488.322,-134.135,135.603,10372.956,8530.259,0
1488767488.322,-197.504,71.157,10865.035,8087.406,0
1488767488.322,-13.510,14.030,11663.532,8806.135,0
1488767488.322,-64.134,96.609,10849.374,8682.949,0
1488767488.337,-227.418,125.906,10481.058,8365.021,0
1488767488.337,-25.790,27.008,11301.156,9296.587,0
1488767488.352,-0.956,71.858,10962.239,9497.862,0
1488767488.352,-205.221,144.803,10807.381,8540.332,0
1488767488.352,-99.526,41.152,11647.248,9291.855,0
1488767488.352,1.610,35.774,12125.554,9829.662,0
1488767488.367,-141.123,129.210,11339.468,9499.130,0
1488767488.367,-202.099,55.788,11860.247,9074.592,0
1488767488.382,11.440,30.181,12663.366,9805.572,0
1488767488.382,-41.995,118.190,11841.101,9684.890,0
1488767488.382,-225.920,129.617,11477.433,9355.771,0
1488767488.382,-32.120,25.136,12286.861,10286.967,0
1488767488.397,-18.621,59.122,11933.755,10468.166,0
1488767488.397,-208.959,146.828,11787.229,9524.402,0
1488767488.412,-113.250,31.071,12638.854,10276.974,0
1488767488.412,15.644,45.659,13127.538,10825.888,0
1488767488.412,-129.666,137.778,12329.002,10493.874,0
1488767488.412,-205.590,57.280,12860.062,10065.491,0
1488767488.427,-2.889,19.384,13636.344,10780.596,0
1488767488.427,-61.725,88.940,12799.915,10644.527,0
1488767488.442,-227.889,115.956,12461.619,10331.901,0
1488767488.442,-40.155,7.394,13269.529,11266.837,0
1488767488.442,1.172,73.887,12921.606,11459.369,0
1488767488.442,-221.310,140.508,12764.545,10491.382,0
1488767488.457,-123.809,10.030,13620.621,11256.619,0
1488767488.457,0.256,31.727,14094.565,11797.123,0
1488767488.472,-153.319,116.935,13285.173,11453.860,0
1488767488.472,-192.857,63.242,13855.124,11057.625,0
1488767488.472,8.864,26.239,14627.296,11768.597,0
1488767488.472,-48.166,108.796,13776.854,11626.092,0
1488767488.487,-237.974,110.462,13445.749,11310.179,0
1488767488.487,-21.843,26.886,14264.427,12256.898,0
1488767488.502,4.559,76.752,13899.925,12437.508,0
1488767488.502,-209.737,138.705,13743.515,11475.438,0
1488767488.502,-114.768,21.359,14612.434,12241.610,0
1488767488.502,5.860,35.774,15072.559,12776.511,0
1488767488.517,-144.420,131.947,14271.585,12442.567,0
1488767488.517,-207.209,57.288,14830.630,12024.122,0
1488767488.532,-10.092,12.345,15586.960,12733.007,0
1488767488.532,-55.812,107.666,14748.119,12610.323,0
1488767488.532,-256.903,98.717,14405.466,12265.414,0
1488767488.532,-36.748,19.842,15231.035,13228.512,0
1488767488.547,7.179,83.400,14867.888,13422.191,0
1488767488.547,-207.708,145.192,14719.319,12452.648,0
1488767488.562,-127.213,16.211,15587.191,13217.292,0
1488767488.562,-8.884,29.841,16030.252,13742.881,0
1488767488.562,-131.463,143.169,15244.697,13423.766,0
1488767488.562,-193.695,66.019,15834.507,13017.751,0
1488767488.577,12.106,31.813,16587.359,13736.880,0
1488767488.577,-56.413,106.617,15712.349,13580.380,0
1488767488.592,-235.142,117.925,15409.372,13267.249,0
1488767488.592,-38.340,11.940,16213.932,14208.831,0
1488767488.592,-19.406,54.629,15823.485,14372.843,0
1488767488.592,-225.019,140.723,15689.710,13416.153,0
1488767488.607,-119.495,23.279,16578.682,14202.611,0
1488767488.607,-11.657,22.636,17005.963,14719.890,0
1488767488.622,-141.290,130.882,16208.729,14388.808,0
1488767488.622,-197.669,56.487,16828.033,14002.985,0
1488767488.622,-0.761,18.056,17549.801,14707.625,0
1488767488.622,-69.055,91.547,16673.400,14541.068,0
1488767488.637,-240.122,110.091,16393.734,14239.312,0
1488767488.637,-28.274,25.630,17211.857,15208.721,0
1488767488.652,-4.669,62.593,16807.705,15366.057,0
1488767488.652,-226.139,132.583,16657.646,14388.354,0
1488767488.652,-113.267,25.611,17571.496,15190.254,0
1488767488.652,0.929,36.096,18001.385,15711.927,0
1488767488.667,-135.932,142.000,17187.018,15370.134,0
1488767488.667,-210.715,49.139,17808.471,14977.927,0
1488767488.682,-7.659,14.028,18534.051,15681.680,0
1488767488.682,-80.782,88.189,17632.025,15511.717,0
1488767488.682,-261.546,92.619,17368.377,15212.248,0
1488767488.682,-26.806,19.403,18197.137,16185.708,0
1488767488.697,5.322,79.856,17790.479,16350.572,0
1488767488.697,-203.765,147.782,17659.328,15382.892,0
1488767488.712,-95.975,34.710,18575.189,16188.136,0
1488767488.712,21.445,49.664,18979.957,16707.287,0
1488767488.712,-136.682,135.814,18143.141,16341.237,0
1488767488.712,-184.168,73.863,18819.350,15982.708,0
1488767488.727,5.900,29.908,19519.564,16673.234,0
1488767488.727,-68.700,94.464,18614.629,16499.314,0
1488767488.742,-224.654,125.676,18385.713,16223.601,0
1488767488.742,-49.097,9.133,19158.562,17151.396,0
1488767488.742,-17.183,56.355,18741.500,17313.090,0
1488767488.742,-222.466,140.306,18621.363,16347.896,0
1488767488.757,-126.970,11.949,19537.510,17159.561,0
1488767488.757,1.404,31.137,19941.664,17669.105,0
1488767488.772,-151.662,121.019,19112.730,17311.209,0
1488767488.772,-203.217,60.153,19797.914,16958.016,0
1488767488.772,-8.456,10.251,20481.182,17638.354,0
1488767488.772,-72.689,85.260,19572.379,17467.033,0
1488767488.787,-262.152,87.345,19337.344,17167.135,0
1488767488.787,-56.284,-2.322,20135.463,18123.803,0
1488767488.802,-23.842,50.378,19711.586,18279.021,0
1488767488.802,-235.614,122.018,19598.350,17317.756,0
1488767488.802,-128.060,4.690,20522.553,18128.844,0
1488767488.802,-6.204,26.914,20916.908,18639.594,0
1488767488.817,-144.379,132.003,20091.541,18290.746,0
1488767488.817,-218.952,41.173,20773.713,17923.525,0
1488767488.832,-23.589,-5.041,21451.754,18606.920,0
1488767488.832,-75.653,84.007,20550.260,18439.010,0
1488767488.832,-243.604,106.628,20348.010,18171.195,0
1488767488.832,-47.830,3.665,21133.551,19117.197,0
1488767488.847,-31.877,34.861,20669.340,19242.092,0
1488767488.847,-213.038,137.894,20586.359,18311.396,0
1488767488.862,-119.325,14.208,21529.324,19129.639,0
1488767488.862,-8.791,19.535,21894.830,19614.527,0
1488767488.862,-160.941,109.740,21044.918,19252.004,0
1488767488.862,-201.986,56.716,21782.152,18922.541,0
1488767488.877,11.960,29.407,22465.941,19622.383,0
1488767488.877,-67.662,100.616,21526.510,19428.943,0
1488767488.892,-243.314,100.609,21328.605,19146.992,0
1488767488.892,-42.712,1.943,22112.637,20101.316,0
1488767488.892,-26.894,46.992,21657.195,20231.602,0
1488767488.892,-216.899,140.181,21566.080,19289.016,0
1488767488.907,-100.048,35.206,22535.441,20136.838,890983190
1488767488.907,3.676,32.502,22882.600,20618.801,0
1488767488.922,-145.976,123.570,22034.375,20246.385,0
1488767488.922,-190.798,62.082,22788.857,19922.719,0
1488767488.922,-2.182,11.369,23434.357,20595.125,0
1488767488.922,-53.247,108.407,22515.980,20422.480,0
1488767488.937,-226.591,110.510,22335.998,20153.457,0
1488767488.937,-32.683,5.872,23112.541,21101.168,0
1488767488.937,-17.061,56.981,2052.580,1620.822,0
1488767488.952,-224.155,130.326,1955.216,660.831,0
1488767488.952,-125.251,6.158,2915.441,1489.355,0
1488767488.967,-6.358,21.056,3264.454,1978.850,0
1488767488.967,-145.112,125.019,2413.327,1612.897,0
1488767488.967,-191.786,58.307,3171.396,1286.647,0
1488767488.967,-8.731,3.020,3807.914,1953.746,0
1488767488.982,-59.578,103.060,2874.981,1775.024,0
1488767488.982,-234.624,116.399,2717.946,1511.630,0
1488767488.997,-46.666,4.363,3487.806,2459.431,0
1488767488.997,-28.866,45.702,3008.235,2584.921,0
1488767488.997,-213.861,144.837,2932.009,1636.849,0
1488767488.997,-104.796,33.848,3909.313,2487.043,0
1488767489.012,-10.627,24.506,4224.765,2943.873,0
1488767489.012,-154.486,128.795,3374.670,2579.970,0
1488767489.027,-190.999,67.494,4173.998,2276.552,0
1488767489.027,10.042,25.259,4817.053,2957.836,0
1488767489.027,-65.411,102.408,3851.175,2751.248,0
1488767489.027,-244.814,105.256,3697.607,2485.831,0
1488767489.042,-63.457,-7.723,4461.023,3428.561,0
1488767489.042,-23.707,56.710,3990.495,3564.377,0
1488767489.057,-220.030,150.531,3912.223,2612.397,0
1488767489.057,-103.032,26.838,3934.735,3480.381,0
1488767489.057,1.530,37.569,4239.423,3943.139,0
1488767489.057,-130.033,147.475,3383.162,3577.552,0
1488767489.072,-185.432,73.145,4200.466,3271.285,0
1488767489.072,-18.032,4.948,4792.625,3909.987,0
1488767489.087,-75.282,94.360,3835.316,3717.834,0
1488767489.087,-230.144,120.657,3728.070,3484.876,0
1488767489.087,-38.831,7.667,4496.132,4438.234,0
1488767489.087,-21.996,53.262,3995.296,4554.805,0
1488767489.102,-223.274,144.196,3906.073,3593.741,0
1488767489.102,-116.838,15.607,3935.007,4449.170,0
1488767489.117,-6.715,25.815,4241.538,4912.717,0
1488767489.117,-151.131,127.736,3369.984,4534.860,0
1488767489.117,-187.857,67.285,4212.907,4252.363,0
1488767489.117,-5.202,14.313,4809.176,4914.129,0
1488767489.132,-67.846,97.681,3833.698,4705.465,0
1488767489.132,-232.992,110.675,3728.308,4463.909,0
1488767489.147,-40.434,5.625,4492.528,5410.236,0
1488767489.147,-25.330,51.796,3989.740,5528.101,0
